#====================================================
#Wavelength   Intensity CWavelength  CIntensity  Note
#  [nm]         rel         [nm]       rel.      txt 
#====================================================
#===================================================
   200.000     127.050    200.1118    127.0500  
   200.200     115.210    200.3117    115.2100  
   200.400     107.010    200.5117    107.0100  
   200.600     115.370    200.7117    115.3700  
   200.800     120.070    200.9116    120.0700  
   201.000     122.270    201.1116    122.2700  
   201.200     123.870    201.3116    123.8700  
   201.400     121.930    201.5115    121.9300  
   201.600     115.450    201.7115    115.4500  
   201.800     124.870    201.9115    124.8700  
   202.000     114.650    202.1114    114.6500  
   202.200     111.650    202.3114    111.6500  
   202.400     114.850    202.5114    114.8500  
   202.600     110.610    202.7113    110.6100  
   202.800     117.350    202.9113    117.3500  
   203.000     115.270    203.1113    115.2700  
   203.200     119.490    203.3112    119.4900  
   203.400     110.890    203.5112    110.8900  
   203.600     107.610    203.7112    107.6100  
   203.800      97.475    203.9111     97.4750  
   204.000     106.390    204.1111    106.3900  
   204.200     107.510    204.3111    107.5100  
   204.400     125.270    204.5110    125.2700  
   204.600     110.570    204.7110    110.5700  
   204.800     105.550    204.9110    105.5500  
   205.000     122.210    205.1110    122.2100  
   205.200     112.690    205.3109    112.6900  
   205.400     107.790    205.5109    107.7900  
   205.600     120.490    205.7109    120.4900  
   205.800     107.170    205.9108    107.1700  
   206.000      98.855    206.1108     98.8550  
   206.200     110.370    206.3108    110.3700  
   206.400     115.730    206.5107    115.7300  
   206.600     108.930    206.7107    108.9300  
   206.800     114.990    206.9107    114.9900  
   207.000     106.930    207.1106    106.9300  
   207.200     119.670    207.3106    119.6700  
   207.400     110.750    207.5106    110.7500  
   207.600     114.410    207.7105    114.4100  
   207.800     102.730    207.9105    102.7300  
   208.000      99.195    208.1105     99.1950  
   208.200     114.710    208.3104    114.7100  
   208.400     106.570    208.5104    106.5700  
   208.600     130.890    208.7104    130.8900  
   208.800      98.355    208.9103     98.3550  
   209.000     110.690    209.1103    110.6900  
   209.200     110.530    209.3103    110.5300  
   209.400     125.230    209.5102    125.2300  
   209.600     106.170    209.7102    106.1700  
   209.800     128.830    209.9102    128.8300  
   210.000     112.110    210.1101    112.1100  
   210.200     106.530    210.3101    106.5300  
   210.400     119.550    210.5101    119.5500  
   210.600     112.290    210.7100    112.2900  
   210.800     127.530    210.9100    127.5300  
   211.000     106.050    211.1100    106.0500  
   211.200     116.270    211.3099    116.2700  
   211.400     117.390    211.5099    117.3900  
   211.600     122.190    211.7099    122.1900  
   211.800     103.110    211.9098    103.1100  
   212.000     109.490    212.1098    109.4900  
   212.200     109.070    212.3098    109.0700  
   212.400     120.910    212.5097    120.9100  
   212.600     110.790    212.7097    110.7900  
   212.800     110.370    212.9097    110.3700  
   213.000      98.475    213.1096     98.4750  
   213.200     113.550    213.3096    113.5500  
   213.400     106.790    213.5096    106.7900  
   213.600     114.790    213.7095    114.7900  
   213.800     115.430    213.9095    115.4300  
   214.000     128.350    214.1095    128.3500  
   214.200     106.810    214.3094    106.8100  
   214.400     120.450    214.5094    120.4500  
   214.600     104.270    214.7094    104.2700  
   214.800     112.370    214.9093    112.3700  
   215.000     108.690    215.1093    108.6900  
   215.200     125.090    215.3093    125.0900  
   215.400     120.630    215.5093    120.6300  
   215.600     121.950    215.7092    121.9500  
   215.800     122.030    215.9092    122.0300  
   216.000     128.410    216.1092    128.4100  
   216.200     109.430    216.3091    109.4300  
   216.400     130.210    216.5091    130.2100  
   216.600     122.710    216.7091    122.7100  
   216.800     125.710    216.9090    125.7100  
   217.000     114.250    217.1090    114.2500  
   217.200     120.790    217.3090    120.7900  
   217.400     115.850    217.5089    115.8500  
   217.600     110.970    217.7089    110.9700  
   217.800     112.870    217.9089    112.8700  
   218.000     113.170    218.1088    113.1700  
   218.200     121.490    218.3088    121.4900  
   218.400     114.490    218.5088    114.4900  
   218.600     109.630    218.7087    109.6300  
   218.800     118.910    218.9087    118.9100  
   219.000     111.710    219.1087    111.7100  
   219.200     111.810    219.3086    111.8100  
   219.400     118.430    219.5086    118.4300  
   219.600     119.050    219.7086    119.0500  
   219.800     113.350    219.9085    113.3500  
   220.000     117.090    220.1085    117.0900  
   220.200     109.930    220.3085    109.9300  
   220.400     110.610    220.5084    110.6100  
   220.600     114.310    220.7084    114.3100  
   220.800     111.770    220.9084    111.7700  
   221.000     125.110    221.1083    125.1100  
   221.200     116.470    221.3083    116.4700  
   221.400     118.190    221.5083    118.1900  
   221.600     118.790    221.7082    118.7900  
   221.800     128.490    221.9082    128.4900  
   222.000     122.290    222.1082    122.2900  
   222.200     121.190    222.3081    121.1900  
   222.400     120.150    222.5081    120.1500  
   222.600     107.290    222.7081    107.2900  
   222.800     124.370    222.9080    124.3700  
   223.000     123.710    223.1080    123.7100  
   223.200     121.930    223.3080    121.9300  
   223.400     116.910    223.5079    116.9100  
   223.600     114.950    223.7079    114.9500  
   223.800     112.530    223.9079    112.5300  
   224.000     125.390    224.1078    125.3900  
   224.200     106.570    224.3078    106.5700  
   224.400     117.990    224.5078    117.9900  
   224.600     125.770    224.7077    125.7700  
   224.800     122.310    224.9077    122.3100  
   225.000     114.070    225.1077    114.0700  
   225.200     118.850    225.3076    118.8500  
   225.400     127.710    225.5076    127.7100  
   225.600     125.830    225.7076    125.8300  
   225.800     113.530    225.9076    113.5300  
   226.000     111.070    226.1075    111.0700  
   226.200     125.470    226.3075    125.4700  
   226.400     119.750    226.5075    119.7500  
   226.600     124.770    226.7074    124.7700  
   226.800     131.430    226.9074    131.4300  
   227.000     106.350    227.1074    106.3500  
   227.200     126.330    227.3073    126.3300  
   227.400     110.530    227.5073    110.5300  
   227.600     114.570    227.7073    114.5700  
   227.800     119.190    227.9072    119.1900  
   228.000     125.870    228.1072    125.8700  
   228.200     125.150    228.3072    125.1500  
   228.400     118.610    228.5071    118.6100  
   228.600     122.170    228.7071    122.1700  
   228.800     115.070    228.9071    115.0700  
   229.000     128.230    229.1070    128.2300  
   229.200     134.790    229.3070    134.7900  
   229.400     122.370    229.5070    122.3700  
   229.600     134.970    229.7069    134.9700  
   229.800     129.350    229.9069    129.3500  
   230.000     135.530    230.1069    135.5300  
   230.200     126.170    230.3068    126.1700  
   230.400     123.470    230.5068    123.4700  
   230.600     133.270    230.7068    133.2700  
   230.800     129.630    230.9067    129.6300  
   231.000     126.110    231.1067    126.1100  
   231.200     128.770    231.3067    128.7700  
   231.400     125.270    231.5066    125.2700  
   231.600     120.450    231.7066    120.4500  
   231.800     136.890    231.9066    136.8900  
   232.000     135.330    232.1065    135.3300  
   232.200     124.410    232.3065    124.4100  
   232.400     134.970    232.5065    134.9700  
   232.600     144.050    232.7064    144.0500  
   232.800     133.790    232.9064    133.7900  
   233.000     126.610    233.1064    126.6100  
   233.200     137.950    233.3063    137.9500  
   233.400     138.510    233.5063    138.5100  
   233.600     131.530    233.7063    131.5300  
   233.800     150.910    233.9062    150.9100  
   234.000     139.050    234.1062    139.0500  
   234.200     152.610    234.3062    152.6100  
   234.400     151.430    234.5061    151.4300  
   234.600     136.870    234.7061    136.8700  
   234.800     145.130    234.9061    145.1300  
   235.000     157.370    235.1060    157.3700  
   235.200     155.490    235.3060    155.4900  
   235.400     140.010    235.5060    140.0100  
   235.600     159.690    235.7059    159.6900  
   235.800     144.990    235.9059    144.9900  
   236.000     134.530    236.1059    134.5300  
   236.200     149.090    236.3058    149.0900  
   236.400     145.050    236.5058    145.0500  
   236.600     154.710    236.7058    154.7100  
   236.800     150.170    236.9058    150.1700  
   237.000     164.930    237.1057    164.9300  
   237.200     146.430    237.3057    146.4300  
   237.400     148.190    237.5057    148.1900  
   237.600     152.510    237.7056    152.5100  
   237.800     149.290    237.9056    149.2900  
   238.000     156.090    238.1056    156.0900  
   238.200     154.350    238.3055    154.3500  
   238.400     162.750    238.5055    162.7500  
   238.600     160.830    238.7055    160.8300  
   238.800     156.190    238.9054    156.1900  
   239.000     155.170    239.1054    155.1700  
   239.200     169.010    239.3054    169.0100  
   239.400     159.350    239.5053    159.3500  
   239.600     167.870    239.7053    167.8700  
   239.800     176.550    239.9053    176.5500  
   240.000     151.290    240.1052    151.2900  
   240.200     161.030    240.3052    161.0300  
   240.400     164.610    240.5052    164.6100  
   240.600     179.590    240.7051    179.5900  
   240.800     180.650    240.9051    180.6500  
   241.000     158.130    241.1051    158.1300  
   241.200     164.870    241.3050    164.8700  
   241.400     182.210    241.5050    182.2100  
   241.600     177.190    241.7050    177.1900  
   241.800     160.390    241.9049    160.3900  
   242.000     168.910    242.1049    168.9100  
   242.200     171.890    242.3049    171.8900  
   242.400     196.730    242.5048    196.7300  
   242.600     164.310    242.7048    164.3100  
   242.800     183.430    242.9048    183.4300  
   243.000     183.750    243.1047    183.7500  
   243.200     164.490    243.3047    164.4900  
   243.400     165.030    243.5047    165.0300  
   243.600     177.390    243.7046    177.3900  
   243.800     182.530    243.9046    182.5300  
   244.000     183.790    244.1046    183.7900  
   244.200     185.970    244.3045    185.9700  
   244.400     191.150    244.5045    191.1500  
   244.600     185.570    244.7045    185.5700  
   244.800     184.630    244.9044    184.6300  
   245.000     170.570    245.1044    170.5700  
   245.200     187.510    245.3044    187.5100  
   245.400     187.510    245.5043    187.5100  
   245.600     177.910    245.7043    177.9100  
   245.800     165.830    245.9043    165.8300  
   246.000     194.090    246.1042    194.0900  
   246.200     187.110    246.3042    187.1100  
   246.400     186.610    246.5042    186.6100  
   246.600     188.890    246.7041    188.8900  
   246.800     191.450    246.9041    191.4500  
   247.000     183.990    247.1041    183.9900  
   247.200     177.770    247.3041    177.7700  
   247.400     200.050    247.5040    200.0500  
   247.600     193.150    247.7040    193.1500  
   247.800     186.250    247.9040    186.2500  
   248.000     198.710    248.1039    198.7100  
   248.200     194.230    248.3039    194.2300  
   248.400     210.610    248.5039    210.6100  
   248.600     182.710    248.7038    182.7100  
   248.800     186.310    248.9038    186.3100  
   249.000     211.050    249.1038    211.0500  
   249.200     191.530    249.3037    191.5300  
   249.400     219.350    249.5037    219.3500  
   249.600     218.530    249.7037    218.5300  
   249.800     202.790    249.9036    202.7900  
   250.000     193.290    250.1036    193.2900  
   250.200     209.290    250.3036    209.2900  
   250.400     181.490    250.5035    181.4900  
   250.600     203.350    250.7035    203.3500  
   250.800     188.190    250.9035    188.1900  
   251.000     189.030    251.1034    189.0300  
   251.200     206.510    251.3034    206.5100  
   251.400     220.150    251.5034    220.1500  
   251.600     203.550    251.7033    203.5500  
   251.800     198.210    251.9033    198.2100  
   252.000     209.650    252.1033    209.6500  
   252.200     206.670    252.3032    206.6700  
   252.400     213.270    252.5032    213.2700  
   252.600     202.570    252.7032    202.5700  
   252.800     203.810    252.9031    203.8100  
   253.000     194.190    253.1031    194.1900  
   253.200     234.650    253.3031    234.6500  
   253.400     208.690    253.5030    208.6900  
   253.600     208.150    253.7030    208.1500  
   253.800     206.870    253.9030    206.8700  
   254.000     218.170    254.1029    218.1700  
   254.200     205.830    254.3029    205.8300  
   254.400     210.050    254.5029    210.0500  
   254.600     229.570    254.7028    229.5700  
   254.800     212.210    254.9028    212.2100  
   255.000     222.150    255.1028    222.1500  
   255.200     221.330    255.3027    221.3300  
   255.400     207.010    255.5027    207.0100  
   255.600     212.690    255.7027    212.6900  
   255.800     217.510    255.9026    217.5100  
   256.000     240.450    256.1026    240.4500  
   256.200     221.530    256.3026    221.5300  
   256.400     235.010    256.5025    235.0100  
   256.600     213.030    256.7025    213.0300  
   256.800     213.750    256.9025    213.7500  
   257.000     210.110    257.1024    210.1100  
   257.200     203.710    257.3024    203.7100  
   257.400     211.730    257.5024    211.7300  
   257.600     230.610    257.7024    230.6100  
   257.800     225.690    257.9023    225.6900  
   258.000     215.610    258.1023    215.6100  
   258.200     203.750    258.3023    203.7500  
   258.400     232.270    258.5022    232.2700  
   258.600     239.510    258.7022    239.5100  
   258.800     219.870    258.9022    219.8700  
   259.000     227.170    259.1021    227.1700  
   259.200     235.190    259.3021    235.1900  
   259.400     219.730    259.5021    219.7300  
   259.600     239.170    259.7020    239.1700  
   259.800     229.950    259.9020    229.9500  
   260.000     231.670    260.1020    231.6700  
   260.200     219.130    260.3019    219.1300  
   260.400     241.610    260.5019    241.6100  
   260.600     221.630    260.7019    221.6300  
   260.800     238.270    260.9018    238.2700  
   261.000     231.890    261.1018    231.8900  
   261.200     257.870    261.3018    257.8700  
   261.400     248.690    261.5017    248.6900  
   261.600     232.930    261.7017    232.9300  
   261.800     234.730    261.9017    234.7300  
   262.000     240.730    262.1016    240.7300  
   262.200     241.010    262.3016    241.0100  
   262.400     241.930    262.5016    241.9300  
   262.600     255.990    262.7015    255.9900  
   262.800     239.410    262.9015    239.4100  
   263.000     256.030    263.1015    256.0300  
   263.200     252.630    263.3014    252.6300  
   263.400     256.190    263.5014    256.1900  
   263.600     243.730    263.7014    243.7300  
   263.800     232.010    263.9013    232.0100  
   264.000     245.610    264.1013    245.6100  
   264.200     242.910    264.3013    242.9100  
   264.400     241.490    264.5012    241.4900  
   264.600     249.190    264.7012    249.1900  
   264.800     242.950    264.9012    242.9500  
   265.000     231.730    265.1011    231.7300  
   265.200     248.570    265.3011    248.5700  
   265.400     259.430    265.5011    259.4300  
   265.600     249.030    265.7010    249.0300  
   265.800     239.550    265.9010    239.5500  
   266.000     245.510    266.1010    245.5100  
   266.200     253.150    266.3009    253.1500  
   266.400     255.230    266.5009    255.2300  
   266.600     271.450    266.7009    271.4500  
   266.800     262.830    266.9008    262.8300  
   267.000     253.710    267.1008    253.7100  
   267.200     252.050    267.3008    252.0500  
   267.400     249.850    267.5007    249.8500  
   267.600     265.150    267.7007    265.1500  
   267.800     263.690    267.9007    263.6900  
   268.000     241.790    268.1007    241.7900  
   268.200     264.170    268.3006    264.1700  
   268.400     274.610    268.5006    274.6100  
   268.600     257.490    268.7006    257.4900  
   268.800     256.930    268.9005    256.9300  
   269.000     246.670    269.1005    246.6700  
   269.200     262.470    269.3005    262.4700  
   269.400     255.870    269.5004    255.8700  
   269.600     235.270    269.7004    235.2700  
   269.800     262.750    269.9004    262.7500  
   270.000     244.470    270.1003    244.4700  
   270.200     257.870    270.3003    257.8700  
   270.400     263.270    270.5003    263.2700  
   270.600     281.950    270.7002    281.9500  
   270.800     261.830    270.9002    261.8300  
   271.000     269.710    271.1002    269.7100  
   271.200     260.090    271.3001    260.0900  
   271.400     276.330    271.5001    276.3300  
   271.600     262.410    271.7001    262.4100  
   271.800     269.050    271.9000    269.0500  
   272.000     267.490    272.1000    267.4900  
   272.200     271.890    272.3000    271.8900  
   272.400     257.250    272.4999    257.2500  
   272.600     243.730    272.6999    243.7300  
   272.800     264.470    272.8999    264.4700  
   273.000     261.330    273.0998    261.3300  
   273.200     268.030    273.2998    268.0300  
   273.400     280.990    273.4998    280.9900  
   273.600     268.030    273.6997    268.0300  
   273.800     252.750    273.8997    252.7500  
   274.000     285.630    274.0997    285.6300  
   274.200     253.490    274.2996    253.4900  
   274.400     275.630    274.4996    275.6300  
   274.600     247.030    274.6996    247.0300  
   274.800     259.410    274.8995    259.4100  
   275.000     252.310    275.0995    252.3100  
   275.200     270.590    275.2995    270.5900  
   275.400     290.090    275.4994    290.0900  
   275.600     262.810    275.6994    262.8100  
   275.800     262.450    275.8994    262.4500  
   276.000     303.290    276.0993    303.2900  
   276.200     248.890    276.2993    248.8900  
   276.400     256.050    276.4993    256.0500  
   276.600     265.130    276.6992    265.1300  
   276.800     279.190    276.8992    279.1900  
   277.000     289.430    277.0992    289.4300  
   277.200     271.670    277.2991    271.6700  
   277.400     259.970    277.4991    259.9700  
   277.600     258.570    277.6991    258.5700  
   277.800     273.930    277.8990    273.9300  
   278.000     260.250    278.0990    260.2500  
   278.200     280.570    278.2990    280.5700  
   278.400     257.330    278.4990    257.3300  
   278.600     262.810    278.6989    262.8100  
   278.800     269.870    278.8989    269.8700  
   279.000     264.890    279.0989    264.8900  
   279.200     283.470    279.2988    283.4700  
   279.400     268.670    279.4988    268.6700  
   279.600     237.110    279.6988    237.1100  
   279.800     293.930    279.8987    293.9300  
   280.000     262.090    280.0987    262.0900  
   280.200     277.510    280.2987    277.5100  
   280.400     268.510    280.4986    268.5100  
   280.600     266.690    280.6986    266.6900  
   280.800     268.030    280.8986    268.0300  
   281.000     287.750    281.0985    287.7500  
   281.200     268.590    281.2985    268.5900  
   281.400     322.170    281.4985    322.1700  
   281.600     399.390    281.6984    399.3900  
   281.800     415.310    281.8984    415.3100  
   282.000     425.110    282.0984    425.1100  
   282.200     574.670    282.2983    574.6700  
   282.400     778.130    282.4983    778.1300  
   282.600     806.610    282.6983    806.6100  
   282.800     726.610    282.8982    726.6100  
   283.000     692.750    283.0982    692.7500  
   283.200     735.510    283.2982    735.5100  
   283.400     855.170    283.4981    855.1700  
   283.600     679.450    283.6981    679.4500  
   283.800     641.030    283.8981    641.0300  
   284.000     545.210    284.0980    545.2100  
   284.200     516.950    284.2980    516.9500  
   284.400     484.550    284.4980    484.5500  
   284.600     406.930    284.6979    406.9300  
   284.800     378.350    284.8979    378.3500  
   285.000     402.190    285.0979    402.1900  
   285.200     304.750    285.2978    304.7500  
   285.400     296.670    285.4978    296.6700  
   285.600     315.510    285.6978    315.5100  
   285.800     289.270    285.8977    289.2700  
   286.000     300.290    286.0977    300.2900  
   286.200     282.890    286.2977    282.8900  
   286.400     292.870    286.4976    292.8700  
   286.600     304.170    286.6976    304.1700  
   286.800     262.030    286.8976    262.0300  
   287.000     267.150    287.0975    267.1500  
   287.200     272.230    287.2975    272.2300  
   287.400     268.990    287.4975    268.9900  
   287.600     278.050    287.6974    278.0500  
   287.800     270.690    287.8974    270.6900  
   288.000     300.050    288.0974    300.0500  
   288.200     281.490    288.2973    281.4900  
   288.400     311.730    288.4973    311.7300  
   288.600     320.510    288.6973    320.5100  
   288.800     304.070    288.8973    304.0700  
   289.000     305.170    289.0972    305.1700  
   289.200     284.170    289.2972    284.1700  
   289.400     308.730    289.4972    308.7300  
   289.600     332.890    289.6971    332.8900  
   289.800     296.010    289.8971    296.0100  
   290.000     292.090    290.0971    292.0900  
   290.200     285.270    290.2970    285.2700  
   290.400     293.330    290.4970    293.3300  
   290.600     280.890    290.6970    280.8900  
   290.800     275.890    290.8969    275.8900  
   291.000     284.150    291.0969    284.1500  
   291.200     289.390    291.2969    289.3900  
   291.400     265.330    291.4968    265.3300  
   291.600     252.970    291.6968    252.9700  
   291.800     251.390    291.8968    251.3900  
   292.000     263.870    292.0967    263.8700  
   292.200     266.710    292.2967    266.7100  
   292.400     265.690    292.4967    265.6900  
   292.600     237.250    292.6966    237.2500  
   292.800     268.810    292.8966    268.8100  
   293.000     239.650    293.0966    239.6500  
   293.200     257.950    293.2965    257.9500  
   293.400     247.170    293.4965    247.1700  
   293.600     250.750    293.6965    250.7500  
   293.800     247.210    293.8964    247.2100  
   294.000     265.230    294.0964    265.2300  
   294.200     257.050    294.2964    257.0500  
   294.400     231.830    294.4963    231.8300  
   294.600     240.310    294.6963    240.3100  
   294.800     234.190    294.8963    234.1900  
   295.000     252.550    295.0962    252.5500  
   295.200     241.750    295.2962    241.7500  
   295.400     274.450    295.4962    274.4500  
   295.600     259.270    295.6961    259.2700  
   295.800     252.530    295.8961    252.5300  
   296.000     249.570    296.0961    249.5700  
   296.200     248.130    296.2960    248.1300  
   296.400     252.710    296.4960    252.7100  
   296.600     232.610    296.6960    232.6100  
   296.800     247.190    296.8959    247.1900  
   297.000     253.490    297.0959    253.4900  
   297.200     233.610    297.2959    233.6100  
   297.400     237.630    297.4958    237.6300  
   297.600     257.990    297.6958    257.9900  
   297.800     241.430    297.8958    241.4300  
   298.000     228.150    298.0957    228.1500  
   298.200     254.130    298.2957    254.1300  
   298.400     243.170    298.4957    243.1700  
   298.600     249.570    298.6956    249.5700  
   298.800     235.630    298.8956    235.6300  
   299.000     240.750    299.0956    240.7500  
   299.200     233.570    299.2955    233.5700  
   299.400     225.170    299.4955    225.1700  
   299.600     226.670    299.6955    226.6700  
   299.800     227.390    299.8955    227.3900  
   300.000     238.390    300.0954    238.3900  
   300.200     223.930    300.2954    223.9300  
   300.400     245.950    300.4954    245.9500  
   300.600     226.150    300.6953    226.1500  
   300.800     233.070    300.8953    233.0700  
   301.000     247.590    301.0953    247.5900  
   301.200     225.070    301.2952    225.0700  
   301.400     221.830    301.4952    221.8300  
   301.600     244.030    301.6952    244.0300  
   301.800     224.550    301.8951    224.5500  
   302.000     214.910    302.0951    214.9100  
   302.200     231.650    302.2951    231.6500  
   302.400     220.130    302.4950    220.1300  
   302.600     233.530    302.6950    233.5300  
   302.800     227.410    302.8950    227.4100  
   303.000     218.370    303.0949    218.3700  
   303.200     220.010    303.2949    220.0100  
   303.400     208.130    303.4949    208.1300  
   303.600     216.190    303.6948    216.1900  
   303.800     226.390    303.8948    226.3900  
   304.000     203.290    304.0948    203.2900  
   304.200     206.730    304.2947    206.7300  
   304.400     239.410    304.4947    239.4100  
   304.600     234.910    304.6947    234.9100  
   304.800     225.970    304.8946    225.9700  
   305.000     228.150    305.0946    228.1500  
   305.200     220.590    305.2946    220.5900  
   305.400     216.350    305.4945    216.3500  
   305.600     235.630    305.6945    235.6300  
   305.800     240.450    305.8945    240.4500  
   306.000     234.750    306.0944    234.7500  
   306.200     230.470    306.2944    230.4700  
   306.400     251.630    306.4944    251.6300  
   306.600     289.810    306.6943    289.8100  
   306.800     351.550    306.8943    351.5500  
   307.000     523.430    307.0943    523.4300  
   307.200     716.130    307.2942    716.1300  
   307.400     935.570    307.4942    935.5700  
   307.600    1006.100    307.6942   1006.1000  
   307.800     769.390    307.8941    769.3900  
   308.000     846.610    308.0941    846.6100  
   308.200    1572.600    308.2941   1572.6000  
   308.400    2477.700    308.4940   2477.7000  
   308.600    3062.300    308.6940   3062.3000  
   308.800    2674.000    308.8940   2674.0000  
   309.000    1957.300    309.0939   1957.3000  
   309.200    2148.600    309.2939   2148.6000  
   309.400    3083.800    309.4939   3083.8000  
   309.600    2935.700    309.6938   2935.7000  
   309.800    2577.600    309.8938   2577.6000  
   310.000    1711.000    310.0938   1711.0000  
   310.200    1707.000    310.2938   1707.0000  
   310.400    1592.000    310.4937   1592.0000  
   310.600    1376.900    310.6937   1376.9000  
   310.800    1130.700    310.8937   1130.7000  
   311.000     984.370    311.0936    984.3700  
   311.200     889.810    311.2936    889.8100  
   311.400     721.690    311.4936    721.6900  
   311.600     600.170    311.6935    600.1700  
   311.800     545.910    311.8935    545.9100  
   312.000     461.010    312.0935    461.0100  
   312.200     433.450    312.2934    433.4500  
   312.400     411.810    312.4934    411.8100  
   312.600     459.850    312.6934    459.8500  
   312.800     552.370    312.8933    552.3700  
   313.000     565.350    313.0933    565.3500  
   313.200     579.910    313.2933    579.9100  
   313.400     479.850    313.4932    479.8500  
   313.600     674.750    313.6932    674.7500  
   313.800     940.710    313.8932    940.7100  
   314.000    1283.300    314.0931   1283.3000  
   314.200    1290.300    314.2931   1290.3000  
   314.400    1064.100    314.4931   1064.1000  
   314.600     868.410    314.6930    868.4100  
   314.800    1099.400    314.8930   1099.4000  
   315.000    1343.600    315.0930   1343.6000  
   315.200    1186.500    315.2929   1186.5000  
   315.400     960.430    315.4929    960.4300  
   315.600     803.070    315.6929    803.0700  
   315.800     771.090    315.8928    771.0900  
   316.000     742.590    316.0928    742.5900  
   316.200     648.050    316.2928    648.0500  
   316.400     538.130    316.4927    538.1300  
   316.600     543.870    316.6927    543.8700  
   316.800     479.130    316.8927    479.1300  
   317.000     435.030    317.0926    435.0300  
   317.200     368.710    317.2926    368.7100  
   317.400     356.410    317.4926    356.4100  
   317.600     323.510    317.6925    323.5100  
   317.800     329.050    317.8925    329.0500  
   318.000     294.930    318.0925    294.9300  
   318.200     301.870    318.2924    301.8700  
   318.400     295.690    318.4924    295.6900  
   318.600     274.730    318.6924    274.7300  
   318.800     285.610    318.8923    285.6100  
   319.000     252.330    319.0923    252.3300  
   319.200     263.290    319.2923    263.2900  
   319.400     312.970    319.4922    312.9700  
   319.600     274.950    319.6922    274.9500  
   319.800     283.790    319.8922    283.7900  
   320.000     270.010    320.0921    270.0100  
   320.200     272.810    320.2921    272.8100  
   320.400     315.470    320.4921    315.4700  
   320.600     287.830    320.6921    287.8300  
   320.800     259.770    320.8920    259.7700  
   321.000     244.910    321.0920    244.9100  
   321.200     273.850    321.2920    273.8500  
   321.400     265.290    321.4919    265.2900  
   321.600     275.930    321.6919    275.9300  
   321.800     234.830    321.8919    234.8300  
   322.000     248.670    322.0918    248.6700  
   322.200     226.830    322.2918    226.8300  
   322.400     237.110    322.4918    237.1100  
   322.600     233.210    322.6917    233.2100  
   322.800     221.990    322.8917    221.9900  
   323.000     211.050    323.0917    211.0500  
   323.200     231.730    323.2916    231.7300  
   323.400     239.730    323.4916    239.7300  
   323.600     234.210    323.6916    234.2100  
   323.800     247.250    323.8915    247.2500  
   324.000     212.930    324.0915    212.9300  
   324.200     193.110    324.2915    193.1100  
   324.400     217.730    324.4914    217.7300  
   324.600     217.170    324.6914    217.1700  
   324.800     201.510    324.8914    201.5100  
   325.000     205.930    325.0913    205.9300  
   325.200     197.870    325.2913    197.8700  
   325.400     203.890    325.4913    203.8900  
   325.600     193.510    325.6912    193.5100  
   325.800     219.910    325.8912    219.9100  
   326.000     211.970    326.0912    211.9700  
   326.200     198.610    326.2911    198.6100  
   326.400     202.450    326.4911    202.4500  
   326.600     200.390    326.6911    200.3900  
   326.800     199.170    326.8910    199.1700  
   327.000     192.790    327.0910    192.7900  
   327.200     195.710    327.2910    195.7100  
   327.400     191.030    327.4909    191.0300  
   327.600     192.150    327.6909    192.1500  
   327.800     209.010    327.8909    209.0100  
   328.000     204.590    328.0908    204.5900  
   328.200     209.470    328.2908    209.4700  
   328.400     199.110    328.4908    199.1100  
   328.600     192.690    328.6907    192.6900  
   328.800     202.790    328.8907    202.7900  
   329.000     202.210    329.0907    202.2100  
   329.200     184.690    329.2906    184.6900  
   329.400     198.350    329.4906    198.3500  
   329.600     178.170    329.6906    178.1700  
   329.800     186.690    329.8905    186.6900  
   330.000     191.010    330.0905    191.0100  
   330.200     207.110    330.2905    207.1100  
   330.400     188.590    330.4904    188.5900  
   330.600     197.610    330.6904    197.6100  
   330.800     189.430    330.8904    189.4300  
   331.000     196.130    331.0904    196.1300  
   331.200     181.610    331.2903    181.6100  
   331.400     173.530    331.4903    173.5300  
   331.600     174.650    331.6903    174.6500  
   331.800     174.530    331.8902    174.5300  
   332.000     185.550    332.0902    185.5500  
   332.200     172.190    332.2902    172.1900  
   332.400     183.770    332.4901    183.7700  
   332.600     192.350    332.6901    192.3500  
   332.800     170.310    332.8901    170.3100  
   333.000     193.950    333.0900    193.9500  
   333.200     182.010    333.2900    182.0100  
   333.400     167.050    333.4900    167.0500  
   333.600     209.310    333.6899    209.3100  
   333.800     192.050    333.8899    192.0500  
   334.000     173.470    334.0899    173.4700  
   334.200     173.210    334.2898    173.2100  
   334.400     169.170    334.4898    169.1700  
   334.600     195.410    334.6898    195.4100  
   334.800     190.850    334.8897    190.8500  
   335.000     186.090    335.0897    186.0900  
   335.200     178.950    335.2897    178.9500  
   335.400     171.450    335.4896    171.4500  
   335.600     175.970    335.6896    175.9700  
   335.800     187.730    335.8896    187.7300  
   336.000     201.270    336.0895    201.2700  
   336.200     198.450    336.2895    198.4500  
   336.400     193.610    336.4895    193.6100  
   336.600     186.030    336.6894    186.0300  
   336.800     197.190    336.8894    197.1900  
   337.000     203.410    337.0894    203.4100  
   337.200     191.490    337.2893    191.4900  
   337.400     218.510    337.4893    218.5100  
   337.600     186.210    337.6893    186.2100  
   337.800     173.830    337.8892    173.8300  
   338.000     194.910    338.0892    194.9100  
   338.200     186.330    338.2892    186.3300  
   338.400     173.150    338.4891    173.1500  
   338.600     173.510    338.6891    173.5100  
   338.800     173.690    338.8891    173.6900  
   339.000     193.350    339.0890    193.3500  
   339.200     166.810    339.2890    166.8100  
   339.400     162.490    339.4890    162.4900  
   339.600     187.870    339.6889    187.8700  
   339.800     178.010    339.8889    178.0100  
   340.000     171.450    340.0889    171.4500  
   340.200     164.810    340.2888    164.8100  
   340.400     183.150    340.4888    183.1500  
   340.600     166.250    340.6888    166.2500  
   340.800     165.130    340.8887    165.1300  
   341.000     168.510    341.0887    168.5100  
   341.200     167.070    341.2887    167.0700  
   341.400     158.650    341.4887    158.6500  
   341.600     191.350    341.6886    191.3500  
   341.800     189.370    341.8886    189.3700  
   342.000     187.590    342.0886    187.5900  
   342.200     171.270    342.2885    171.2700  
   342.400     172.170    342.4885    172.1700  
   342.600     172.390    342.6885    172.3900  
   342.800     163.530    342.8884    163.5300  
   343.000     153.990    343.0884    153.9900  
   343.200     175.650    343.2884    175.6500  
   343.400     171.570    343.4883    171.5700  
   343.600     181.550    343.6883    181.5500  
   343.800     159.770    343.8883    159.7700  
   344.000     165.290    344.0882    165.2900  
   344.200     190.750    344.2882    190.7500  
   344.400     172.810    344.4882    172.8100  
   344.600     177.630    344.6881    177.6300  
   344.800     173.450    344.8881    173.4500  
   345.000     181.850    345.0881    181.8500  
   345.200     188.810    345.2880    188.8100  
   345.400     171.810    345.4880    171.8100  
   345.600     180.210    345.6880    180.2100  
   345.800     201.430    345.8879    201.4300  
   346.000     192.010    346.0879    192.0100  
   346.200     180.030    346.2879    180.0300  
   346.400     177.770    346.4878    177.7700  
   346.600     188.790    346.6878    188.7900  
   346.800     197.770    346.8878    197.7700  
   347.000     163.510    347.0877    163.5100  
   347.200     162.110    347.2877    162.1100  
   347.400     203.690    347.4877    203.6900  
   347.600     180.290    347.6876    180.2900  
   347.800     179.870    347.8876    179.8700  
   348.000     178.430    348.0876    178.4300  
   348.200     173.370    348.2875    173.3700  
   348.400     165.490    348.4875    165.4900  
   348.600     185.610    348.6875    185.6100  
   348.800     161.430    348.8874    161.4300  
   349.000     159.650    349.0874    159.6500  
   349.200     163.550    349.2874    163.5500  
   349.400     165.310    349.4873    165.3100  
   349.600     185.030    349.6873    185.0300  
   349.800     186.670    349.8873    186.6700  
   350.000     172.070    350.0872    172.0700  
   350.200     169.350    350.2872    169.3500  
   350.400     177.010    350.4872    177.0100  
   350.600     157.470    350.6871    157.4700  
   350.800     165.330    350.8871    165.3300  
   351.000     164.550    351.0871    164.5500  
   351.200     170.810    351.2870    170.8100  
   351.400     189.290    351.4870    189.2900  
   351.600     188.770    351.6870    188.7700  
   351.800     159.070    351.8869    159.0700  
   352.000     189.850    352.0869    189.8500  
   352.200     192.130    352.2869    192.1300  
   352.400     187.410    352.4869    187.4100  
   352.600     185.130    352.6868    185.1300  
   352.800     177.730    352.8868    177.7300  
   353.000     152.350    353.0868    152.3500  
   353.200     173.070    353.2867    173.0700  
   353.400     152.910    353.4867    152.9100  
   353.600     158.370    353.6867    158.3700  
   353.800     158.430    353.8866    158.4300  
   354.000     167.630    354.0866    167.6300  
   354.200     150.710    354.2866    150.7100  
   354.400     158.130    354.4865    158.1300  
   354.600     156.670    354.6865    156.6700  
   354.800     161.390    354.8865    161.3900  
   355.000     148.950    355.0864    148.9500  
   355.200     152.670    355.2864    152.6700  
   355.400     162.510    355.4864    162.5100  
   355.600     163.290    355.6863    163.2900  
   355.800     162.970    355.8863    162.9700  
   356.000     156.250    356.0863    156.2500  
   356.200     148.110    356.2862    148.1100  
   356.400     152.450    356.4862    152.4500  
   356.600     162.930    356.6862    162.9300  
   356.800     147.530    356.8861    147.5300  
   357.000     142.590    357.0861    142.5900  
   357.200     159.230    357.2861    159.2300  
   357.400     152.550    357.4860    152.5500  
   357.600     162.950    357.6860    162.9500  
   357.800     172.770    357.8860    172.7700  
   358.000     147.210    358.0859    147.2100  
   358.200     157.510    358.2859    157.5100  
   358.400     151.750    358.4859    151.7500  
   358.600     162.530    358.6858    162.5300  
   358.800     164.390    358.8858    164.3900  
   359.000     150.050    359.0858    150.0500  
   359.200     160.030    359.2857    160.0300  
   359.400     176.730    359.4857    176.7300  
   359.600     186.770    359.6857    186.7700  
   359.800     174.450    359.8856    174.4500  
   360.000     176.690    360.0856    176.6900  
   360.200     147.510    360.2856    147.5100  
   360.400     152.530    360.4855    152.5300  
   360.600     168.830    360.6855    168.8300  
   360.800     151.650    360.8855    151.6500  
   361.000     148.670    361.0854    148.6700  
   361.200     147.970    361.2854    147.9700  
   361.400     168.070    361.4854    168.0700  
   361.600     152.450    361.6853    152.4500  
   361.800     160.170    361.8853    160.1700  
   362.000     160.490    362.0853    160.4900  
   362.200     145.390    362.2852    145.3900  
   362.400     163.330    362.4852    163.3300  
   362.600     154.410    362.6852    154.4100  
   362.800     154.050    362.8852    154.0500  
   363.000     166.750    363.0851    166.7500  
   363.200     162.830    363.2851    162.8300  
   363.400     160.470    363.4851    160.4700  
   363.600     158.670    363.6850    158.6700  
   363.800     163.410    363.8850    163.4100  
   364.000     167.750    364.0850    167.7500  
   364.200     144.210    364.2849    144.2100  
   364.400     154.530    364.4849    154.5300  
   364.600     148.190    364.6849    148.1900  
   364.800     172.430    364.8848    172.4300  
   365.000     170.010    365.0848    170.0100  
   365.200     150.970    365.2848    150.9700  
   365.400     153.070    365.4847    153.0700  
   365.600     139.650    365.6847    139.6500  
   365.800     168.150    365.8847    168.1500  
   366.000     149.050    366.0846    149.0500  
   366.200     152.030    366.2846    152.0300  
   366.400     153.750    366.4846    153.7500  
   366.600     156.810    366.6845    156.8100  
   366.800     159.950    366.8845    159.9500  
   367.000     156.390    367.0845    156.3900  
   367.200     145.970    367.2844    145.9700  
   367.400     146.210    367.4844    146.2100  
   367.600     137.730    367.6844    137.7300  
   367.800     154.310    367.8843    154.3100  
   368.000     151.850    368.0843    151.8500  
   368.200     158.150    368.2843    158.1500  
   368.400     146.150    368.4842    146.1500  
   368.600     178.370    368.6842    178.3700  
   368.800     153.430    368.8842    153.4300  
   369.000     151.230    369.0841    151.2300  
   369.200     155.490    369.2841    155.4900  
   369.400     149.010    369.4841    149.0100  
   369.600     149.530    369.6840    149.5300  
   369.800     147.130    369.8840    147.1300  
   370.000     153.070    370.0840    153.0700  
   370.200     147.950    370.2839    147.9500  
   370.400     151.950    370.4839    151.9500  
   370.600     153.490    370.6839    153.4900  
   370.800     148.610    370.8838    148.6100  
   371.000     136.110    371.0838    136.1100  
   371.200     154.010    371.2838    154.0100  
   371.400     150.770    371.4837    150.7700  
   371.600     143.250    371.6837    143.2500  
   371.800     154.610    371.8837    154.6100  
   372.000     143.570    372.0836    143.5700  
   372.200     156.010    372.2836    156.0100  
   372.400     151.930    372.4836    151.9300  
   372.600     139.030    372.6835    139.0300  
   372.800     145.410    372.8835    145.4100  
   373.000     145.670    373.0835    145.6700  
   373.200     140.850    373.2835    140.8500  
   373.400     158.210    373.4834    158.2100  
   373.600     134.270    373.6834    134.2700  
   373.800     155.710    373.8834    155.7100  
   374.000     163.570    374.0833    163.5700  
   374.200     148.610    374.2833    148.6100  
   374.400     130.730    374.4833    130.7300  
   374.600     140.750    374.6832    140.7500  
   374.800     155.770    374.8832    155.7700  
   375.000     142.310    375.0832    142.3100  
   375.200     140.830    375.2831    140.8300  
   375.400     143.190    375.4831    143.1900  
   375.600     141.830    375.6831    141.8300  
   375.800     148.210    375.8830    148.2100  
   376.000     151.870    376.0830    151.8700  
   376.200     145.250    376.2830    145.2500  
   376.400     150.130    376.4829    150.1300  
   376.600     145.450    376.6829    145.4500  
   376.800     148.030    376.8829    148.0300  
   377.000     153.650    377.0828    153.6500  
   377.200     140.010    377.2828    140.0100  
   377.400     147.410    377.4828    147.4100  
   377.600     142.890    377.6827    142.8900  
   377.800     136.110    377.8827    136.1100  
   378.000     138.830    378.0827    138.8300  
   378.200     142.470    378.2826    142.4700  
   378.400     152.790    378.4826    152.7900  
   378.600     138.590    378.6826    138.5900  
   378.800     133.730    378.8825    133.7300  
   379.000     148.230    379.0825    148.2300  
   379.200     146.370    379.2825    146.3700  
   379.400     132.850    379.4824    132.8500  
   379.600     141.070    379.6824    141.0700  
   379.800     132.690    379.8824    132.6900  
   380.000     140.950    380.0823    140.9500  
   380.200     153.550    380.2823    153.5500  
   380.400     138.150    380.4823    138.1500  
   380.600     142.530    380.6822    142.5300  
   380.800     132.710    380.8822    132.7100  
   381.000     121.990    381.0822    121.9900  
   381.200     140.110    381.2821    140.1100  
   381.400     140.310    381.4821    140.3100  
   381.600     143.850    381.6821    143.8500  
   381.800     134.850    381.8820    134.8500  
   382.000     145.910    382.0820    145.9100  
   382.200     147.050    382.2820    147.0500  
   382.400     143.470    382.4819    143.4700  
   382.600     152.850    382.6819    152.8500  
   382.800     142.730    382.8819    142.7300  
   383.000     145.270    383.0818    145.2700  
   383.200     143.650    383.2818    143.6500  
   383.400     140.590    383.4818    140.5900  
   383.600     131.070    383.6818    131.0700  
   383.800     137.250    383.8817    137.2500  
   384.000     138.430    384.0817    138.4300  
   384.200     147.390    384.2817    147.3900  
   384.400     136.870    384.4816    136.8700  
   384.600     141.230    384.6816    141.2300  
   384.800     153.970    384.8816    153.9700  
   385.000     142.070    385.0815    142.0700  
   385.200     139.190    385.2815    139.1900  
   385.400     132.990    385.4815    132.9900  
   385.600     145.410    385.6814    145.4100  
   385.800     139.130    385.8814    139.1300  
   386.000     145.550    386.0814    145.5500  
   386.200     148.030    386.2813    148.0300  
   386.400     143.770    386.4813    143.7700  
   386.600     155.310    386.6813    155.3100  
   386.800     144.210    386.8812    144.2100  
   387.000     144.430    387.0812    144.4300  
   387.200     156.770    387.2812    156.7700  
   387.400     151.850    387.4811    151.8500  
   387.600     135.530    387.6811    135.5300  
   387.800     139.330    387.8811    139.3300  
   388.000     145.150    388.0810    145.1500  
   388.200     132.610    388.2810    132.6100  
   388.400     141.470    388.4810    141.4700  
   388.600     138.690    388.6809    138.6900  
   388.800     138.810    388.8809    138.8100  
   389.000     135.650    389.0809    135.6500  
   389.200     126.090    389.2808    126.0900  
   389.400     127.070    389.4808    127.0700  
   389.600     137.010    389.6808    137.0100  
   389.800     136.910    389.8807    136.9100  
   390.000     149.390    390.0807    149.3900  
   390.200     138.870    390.2807    138.8700  
   390.400     128.690    390.4806    128.6900  
   390.600     141.230    390.6806    141.2300  
   390.800     131.950    390.8806    131.9500  
   391.000     135.310    391.0805    135.3100  
   391.200     125.370    391.2805    125.3700  
   391.400     143.590    391.4805    143.5900  
   391.600     138.870    391.6804    138.8700  
   391.800     140.210    391.8804    140.2100  
   392.000     128.570    392.0804    128.5700  
   392.200     129.230    392.2803    129.2300  
   392.400     123.950    392.4803    123.9500  
   392.600     139.310    392.6803    139.3100  
   392.800     148.890    392.8802    148.8900  
   393.000     137.510    393.0802    137.5100  
   393.200     134.610    393.2802    134.6100  
   393.400     151.230    393.4801    151.2300  
   393.600     138.370    393.6801    138.3700  
   393.800     134.110    393.8801    134.1100  
   394.000     139.350    394.0801    139.3500  
   394.200     141.750    394.2800    141.7500  
   394.400     160.230    394.4800    160.2300  
   394.600     232.250    394.6800    232.2500  
   394.800     265.290    394.8799    265.2900  
   395.000     211.550    395.0799    211.5500  
   395.200     167.090    395.2799    167.0900  
   395.400     126.970    395.4798    126.9700  
   395.600     130.030    395.6798    130.0300  
   395.800     126.770    395.8798    126.7700  
   396.000     142.050    396.0797    142.0500  
   396.200     160.030    396.2797    160.0300  
   396.400     130.970    396.4797    130.9700  
   396.600     130.510    396.6796    130.5100  
   396.800     147.270    396.8796    147.2700  
   397.000     130.670    397.0796    130.6700  
   397.200     139.750    397.2795    139.7500  
   397.400     128.370    397.4795    128.3700  
   397.600     146.290    397.6795    146.2900  
   397.800     151.590    397.8794    151.5900  
   398.000     124.810    398.0794    124.8100  
   398.200     145.170    398.2794    145.1700  
   398.400     123.330    398.4793    123.3300  
   398.600     137.010    398.6793    137.0100  
   398.800     138.190    398.8793    138.1900  
   399.000     122.750    399.0792    122.7500  
   399.200     142.490    399.2792    142.4900  
   399.400     138.170    399.4792    138.1700  
   399.600     145.550    399.6791    145.5500  
   399.800     136.290    399.8791    136.2900  
   400.000     133.470    400.0791    133.4700  
   400.200     145.910    400.2790    145.9100  
   400.400     145.230    400.4790    145.2300  
   400.600     117.750    400.6790    117.7500  
   400.800     135.830    400.8789    135.8300  
   401.000     140.690    401.0789    140.6900  
   401.200     129.670    401.2789    129.6700  
   401.400     137.830    401.4788    137.8300  
   401.600     140.930    401.6788    140.9300  
   401.800     139.730    401.8788    139.7300  
   402.000     126.990    402.0787    126.9900  
   402.200     144.850    402.2787    144.8500  
   402.400     143.310    402.4787    143.3100  
   402.600     120.070    402.6786    120.0700  
   402.800     134.410    402.8786    134.4100  
   403.000     142.770    403.0786    142.7700  
   403.200     129.190    403.2785    129.1900  
   403.400     144.690    403.4785    144.6900  
   403.600     140.990    403.6785    140.9900  
   403.800     129.070    403.8784    129.0700  
   404.000     147.470    404.0784    147.4700  
   404.200     144.070    404.2784    144.0700  
   404.400     153.130    404.4784    153.1300  
   404.600     149.450    404.6783    149.4500  
   404.800     122.650    404.8783    122.6500  
   405.000     127.670    405.0783    127.6700  
   405.200     141.170    405.2782    141.1700  
   405.400     123.370    405.4782    123.3700  
   405.600     132.750    405.6782    132.7500  
   405.800     135.770    405.8781    135.7700  
   406.000     127.790    406.0781    127.7900  
   406.200     134.950    406.2781    134.9500  
   406.400     130.490    406.4780    130.4900  
   406.600     131.190    406.6780    131.1900  
   406.800     127.730    406.8780    127.7300  
   407.000     130.870    407.0779    130.8700  
   407.200     128.730    407.2779    128.7300  
   407.400     143.650    407.4779    143.6500  
   407.600     134.710    407.6778    134.7100  
   407.800     131.730    407.8778    131.7300  
   408.000     120.010    408.0778    120.0100  
   408.200     131.870    408.2777    131.8700  
   408.400     121.290    408.4777    121.2900  
   408.600     125.690    408.6777    125.6900  
   408.800     137.010    408.8776    137.0100  
   409.000     140.030    409.0776    140.0300  
   409.200     128.850    409.2776    128.8500  
   409.400     145.310    409.4775    145.3100  
   409.600     123.850    409.6775    123.8500  
   409.800     129.350    409.8775    129.3500  
   410.000     137.290    410.0774    137.2900  
   410.200     149.290    410.2774    149.2900  
   410.400     135.810    410.4774    135.8100  
   410.600     136.110    410.6773    136.1100  
   410.800     130.810    410.8773    130.8100  
   411.000     131.890    411.0773    131.8900  
   411.200     139.610    411.2772    139.6100  
   411.400     139.730    411.4772    139.7300  
   411.600     132.190    411.6772    132.1900  
   411.800     134.930    411.8771    134.9300  
   412.000     135.450    412.0771    135.4500  
   412.200     130.230    412.2771    130.2300  
   412.400     128.370    412.4770    128.3700  
   412.600     129.610    412.6770    129.6100  
   412.800     133.230    412.8770    133.2300  
   413.000     123.030    413.0769    123.0300  
   413.200     120.670    413.2769    120.6700  
   413.400     134.210    413.4769    134.2100  
   413.600     131.490    413.6768    131.4900  
   413.800     133.610    413.8768    133.6100  
   414.000     123.070    414.0768    123.0700  
   414.200     128.910    414.2767    128.9100  
   414.400     128.130    414.4767    128.1300  
   414.600     141.170    414.6767    141.1700  
   414.800     116.730    414.8766    116.7300  
   415.000     122.490    415.0766    122.4900  
   415.200     134.650    415.2766    134.6500  
   415.400     128.390    415.4766    128.3900  
   415.600     117.690    415.6765    117.6900  
   415.800     125.710    415.8765    125.7100  
   416.000     123.950    416.0765    123.9500  
   416.200     124.390    416.2764    124.3900  
   416.400     115.990    416.4764    115.9900  
   416.600     128.510    416.6764    128.5100  
   416.800     117.470    416.8763    117.4700  
   417.000     125.770    417.0763    125.7700  
   417.200     132.590    417.2763    132.5900  
   417.400     131.710    417.4762    131.7100  
   417.600     125.250    417.6762    125.2500  
   417.800     118.510    417.8762    118.5100  
   418.000     136.550    418.0761    136.5500  
   418.200     137.610    418.2761    137.6100  
   418.400     127.490    418.4761    127.4900  
   418.600     129.570    418.6760    129.5700  
   418.800     118.490    418.8760    118.4900  
   419.000     134.970    419.0760    134.9700  
   419.200     153.790    419.2759    153.7900  
   419.400     129.190    419.4759    129.1900  
   419.600     135.570    419.6759    135.5700  
   419.800     122.770    419.8758    122.7700  
   420.000     121.090    420.0758    121.0900  
   420.200     116.870    420.2758    116.8700  
   420.400     128.150    420.4757    128.1500  
   420.600     142.310    420.6757    142.3100  
   420.800     132.910    420.8757    132.9100  
   421.000     134.590    421.0756    134.5900  
   421.200     139.550    421.2756    139.5500  
   421.400     121.450    421.4756    121.4500  
   421.600     123.630    421.6755    123.6300  
   421.800     121.070    421.8755    121.0700  
   422.000     118.970    422.0755    118.9700  
   422.200     126.750    422.2754    126.7500  
   422.400     133.450    422.4754    133.4500  
   422.600     135.370    422.6754    135.3700  
   422.800     142.010    422.8753    142.0100  
   423.000     131.870    423.0753    131.8700  
   423.200     137.190    423.2753    137.1900  
   423.400     136.230    423.4752    136.2300  
   423.600     133.770    423.6752    133.7700  
   423.800     132.350    423.8752    132.3500  
   424.000     130.050    424.0751    130.0500  
   424.200     128.390    424.2751    128.3900  
   424.400     129.910    424.4751    129.9100  
   424.600     119.370    424.6750    119.3700  
   424.800     128.630    424.8750    128.6300  
   425.000     146.750    425.0750    146.7500  
   425.200     113.790    425.2749    113.7900  
   425.400     139.630    425.4749    139.6300  
   425.600     124.470    425.6749    124.4700  
   425.800     126.290    425.8749    126.2900  
   426.000     129.850    426.0748    129.8500  
   426.200     126.530    426.2748    126.5300  
   426.400     135.910    426.4748    135.9100  
   426.600     131.430    426.6747    131.4300  
   426.800     134.930    426.8747    134.9300  
   427.000     137.450    427.0747    137.4500  
   427.200     131.430    427.2746    131.4300  
   427.400     121.090    427.4746    121.0900  
   427.600     117.650    427.6746    117.6500  
   427.800     138.510    427.8745    138.5100  
   428.000     125.470    428.0745    125.4700  
   428.200     126.870    428.2745    126.8700  
   428.400     124.110    428.4744    124.1100  
   428.600     126.370    428.6744    126.3700  
   428.800     132.110    428.8744    132.1100  
   429.000     128.470    429.0743    128.4700  
   429.200     124.870    429.2743    124.8700  
   429.400     128.550    429.4743    128.5500  
   429.600     121.890    429.6742    121.8900  
   429.800     120.150    429.8742    120.1500  
   430.000     127.370    430.0742    127.3700  
   430.200     122.250    430.2741    122.2500  
   430.400     123.390    430.4741    123.3900  
   430.600     110.370    430.6741    110.3700  
   430.800     137.830    430.8740    137.8300  
   431.000     128.050    431.0740    128.0500  
   431.200     138.050    431.2740    138.0500  
   431.400     129.230    431.4739    129.2300  
   431.600     129.390    431.6739    129.3900  
   431.800     127.270    431.8739    127.2700  
   432.000     125.270    432.0738    125.2700  
   432.200     125.350    432.2738    125.3500  
   432.400     128.790    432.4738    128.7900  
   432.600     119.050    432.6737    119.0500  
   432.800     126.470    432.8737    126.4700  
   433.000     129.830    433.0737    129.8300  
   433.200     151.730    433.2736    151.7300  
   433.400     153.470    433.4736    153.4700  
   433.600     151.710    433.6736    151.7100  
   433.800     149.510    433.8735    149.5100  
   434.000     163.530    434.0735    163.5300  
   434.200     168.790    434.2735    168.7900  
   434.400     149.590    434.4734    149.5900  
   434.600     124.150    434.6734    124.1500  
   434.800     130.870    434.8734    130.8700  
   435.000     128.170    435.0733    128.1700  
   435.200     132.570    435.2733    132.5700  
   435.400     136.550    435.4733    136.5500  
   435.600     133.430    435.6732    133.4300  
   435.800     131.710    435.8732    131.7100  
   436.000     129.650    436.0732    129.6500  
   436.200     132.370    436.2732    132.3700  
   436.400     115.770    436.4731    115.7700  
   436.600     147.550    436.6731    147.5500  
   436.800     168.730    436.8731    168.7300  
   437.000     155.150    437.0730    155.1500  
   437.200     146.330    437.2730    146.3300  
   437.400     122.810    437.4730    122.8100  
   437.600     140.310    437.6729    140.3100  
   437.800     125.430    437.8729    125.4300  
   438.000     132.670    438.0729    132.6700  
   438.200     110.210    438.2728    110.2100  
   438.400     124.510    438.4728    124.5100  
   438.600     142.670    438.6728    142.6700  
   438.800     128.110    438.8727    128.1100  
   439.000     139.390    439.0727    139.3900  
   439.200     130.010    439.2727    130.0100  
   439.400     126.430    439.4726    126.4300  
   439.600     134.370    439.6726    134.3700  
   439.800     123.950    439.8726    123.9500  
   440.000     132.890    440.0725    132.8900  
   440.200     125.710    440.2725    125.7100  
   440.400     135.210    440.4725    135.2100  
   440.600     124.770    440.6724    124.7700  
   440.800     139.310    440.8724    139.3100  
   441.000     129.870    441.0724    129.8700  
   441.200     128.850    441.2723    128.8500  
   441.400     130.670    441.4723    130.6700  
   441.600     136.730    441.6723    136.7300  
   441.800     138.250    441.8722    138.2500  
   442.000     127.470    442.0722    127.4700  
   442.200     130.230    442.2722    130.2300  
   442.400     125.890    442.4721    125.8900  
   442.600     140.050    442.6721    140.0500  
   442.800     139.870    442.8721    139.8700  
   443.000     134.990    443.0720    134.9900  
   443.200     128.150    443.2720    128.1500  
   443.400     124.710    443.4720    124.7100  
   443.600     126.490    443.6719    126.4900  
   443.800     122.170    443.8719    122.1700  
   444.000     119.310    444.0719    119.3100  
   444.200     112.850    444.2718    112.8500  
   444.400     130.690    444.4718    130.6900  
   444.600     134.630    444.6718    134.6300  
   444.800     133.550    444.8717    133.5500  
   445.000     118.790    445.0717    118.7900  
   445.200     135.650    445.2717    135.6500  
   445.400     128.650    445.4716    128.6500  
   445.600     123.470    445.6716    123.4700  
   445.800     130.510    445.8716    130.5100  
   446.000     130.470    446.0715    130.4700  
   446.200     129.110    446.2715    129.1100  
   446.400     130.270    446.4715    130.2700  
   446.600     123.730    446.6715    123.7300  
   446.800     115.090    446.8714    115.0900  
   447.000     120.610    447.0714    120.6100  
   447.200     141.530    447.2714    141.5300  
   447.400     129.150    447.4713    129.1500  
   447.600     134.270    447.6713    134.2700  
   447.800     122.970    447.8713    122.9700  
   448.000     142.670    448.0712    142.6700  
   448.200     115.350    448.2712    115.3500  
   448.400     127.330    448.4712    127.3300  
   448.600     128.770    448.6711    128.7700  
   448.800     126.270    448.8711    126.2700  
   449.000     123.670    449.0711    123.6700  
   449.200     140.370    449.2710    140.3700  
   449.400     118.170    449.4710    118.1700  
   449.600     131.950    449.6710    131.9500  
   449.800     137.470    449.8709    137.4700  
   450.000     123.170    450.0709    123.1700  
   450.200     130.970    450.2709    130.9700  
   450.400     123.990    450.4708    123.9900  
   450.600     122.410    450.6708    122.4100  
   450.800     126.710    450.8708    126.7100  
   451.000     116.310    451.0707    116.3100  
   451.200     130.430    451.2707    130.4300  
   451.400     118.410    451.4707    118.4100  
   451.600     126.930    451.6706    126.9300  
   451.800     125.610    451.8706    125.6100  
   452.000     119.810    452.0706    119.8100  
   452.200     123.630    452.2705    123.6300  
   452.400     125.910    452.4705    125.9100  
   452.600     125.490    452.6705    125.4900  
   452.800     118.110    452.8704    118.1100  
   453.000     126.970    453.0704    126.9700  
   453.200     116.430    453.2704    116.4300  
   453.400     139.990    453.4703    139.9900  
   453.600     127.330    453.6703    127.3300  
   453.800     123.370    453.8703    123.3700  
   454.000     131.870    454.0702    131.8700  
   454.200     120.530    454.2702    120.5300  
   454.400     123.950    454.4702    123.9500  
   454.600     117.570    454.6701    117.5700  
   454.800     128.670    454.8701    128.6700  
   455.000     128.670    455.0701    128.6700  
   455.200     127.990    455.2700    127.9900  
   455.400     118.590    455.4700    118.5900  
   455.600     127.730    455.6700    127.7300  
   455.800     122.250    455.8699    122.2500  
   456.000     118.090    456.0699    118.0900  
   456.200     135.970    456.2699    135.9700  
   456.400     120.870    456.4698    120.8700  
   456.600     120.410    456.6698    120.4100  
   456.800     113.930    456.8698    113.9300  
   457.000     120.350    457.0698    120.3500  
   457.200     119.170    457.2697    119.1700  
   457.400     119.570    457.4697    119.5700  
   457.600     124.470    457.6697    124.4700  
   457.800     125.510    457.8696    125.5100  
   458.000     108.410    458.0696    108.4100  
   458.200     111.570    458.2696    111.5700  
   458.400     127.710    458.4695    127.7100  
   458.600     124.530    458.6695    124.5300  
   458.800     126.730    458.8695    126.7300  
   459.000     119.090    459.0694    119.0900  
   459.200     124.190    459.2694    124.1900  
   459.400     119.670    459.4694    119.6700  
   459.600     143.310    459.6693    143.3100  
   459.800     115.030    459.8693    115.0300  
   460.000     125.650    460.0693    125.6500  
   460.200     126.270    460.2692    126.2700  
   460.400     126.230    460.4692    126.2300  
   460.600     127.490    460.6692    127.4900  
   460.800     129.810    460.8691    129.8100  
   461.000     141.910    461.0691    141.9100  
   461.200     116.290    461.2691    116.2900  
   461.400     123.890    461.4690    123.8900  
   461.600     110.930    461.6690    110.9300  
   461.800     120.690    461.8690    120.6900  
   462.000     119.310    462.0689    119.3100  
   462.200     124.550    462.2689    124.5500  
   462.400     125.990    462.4689    125.9900  
   462.600     117.150    462.6688    117.1500  
   462.800     134.470    462.8688    134.4700  
   463.000     132.310    463.0688    132.3100  
   463.200     125.250    463.2687    125.2500  
   463.400     112.610    463.4687    112.6100  
   463.600     124.130    463.6687    124.1300  
   463.800     123.870    463.8686    123.8700  
   464.000     120.390    464.0686    120.3900  
   464.200     126.690    464.2686    126.6900  
   464.400     109.350    464.4685    109.3500  
   464.600     134.650    464.6685    134.6500  
   464.800     116.790    464.8685    116.7900  
   465.000     115.850    465.0684    115.8500  
   465.200     124.370    465.2684    124.3700  
   465.400     130.750    465.4684    130.7500  
   465.600     123.770    465.6683    123.7700  
   465.800     133.190    465.8683    133.1900  
   466.000     114.210    466.0683    114.2100  
   466.200     127.330    466.2682    127.3300  
   466.400     113.170    466.4682    113.1700  
   466.600     130.190    466.6682    130.1900  
   466.800     121.930    466.8681    121.9300  
   467.000     109.730    467.0681    109.7300  
   467.200     133.230    467.2681    133.2300  
   467.400     142.750    467.4680    142.7500  
   467.600     125.870    467.6680    125.8700  
   467.800     110.490    467.8680    110.4900  
   468.000     131.870    468.0680    131.8700  
   468.200     107.010    468.2679    107.0100  
   468.400     130.450    468.4679    130.4500  
   468.600     121.490    468.6679    121.4900  
   468.800     125.190    468.8678    125.1900  
   469.000     129.890    469.0678    129.8900  
   469.200     125.830    469.2678    125.8300  
   469.400     118.470    469.4677    118.4700  
   469.600     125.710    469.6677    125.7100  
   469.800     118.690    469.8677    118.6900  
   470.000     128.090    470.0676    128.0900  
   470.200     135.610    470.2676    135.6100  
   470.400     121.590    470.4676    121.5900  
   470.600     113.090    470.6675    113.0900  
   470.800     123.850    470.8675    123.8500  
   471.000     120.870    471.0675    120.8700  
   471.200     110.670    471.2674    110.6700  
   471.400     131.490    471.4674    131.4900  
   471.600     122.570    471.6674    122.5700  
   471.800     124.130    471.8673    124.1300  
   472.000     134.910    472.0673    134.9100  
   472.200     125.370    472.2673    125.3700  
   472.400     118.610    472.4672    118.6100  
   472.600     132.910    472.6672    132.9100  
   472.800     126.650    472.8672    126.6500  
   473.000     127.250    473.0671    127.2500  
   473.200     117.290    473.2671    117.2900  
   473.400     119.830    473.4671    119.8300  
   473.600     118.830    473.6670    118.8300  
   473.800     124.110    473.8670    124.1100  
   474.000     129.270    474.0670    129.2700  
   474.200     118.750    474.2669    118.7500  
   474.400     119.710    474.4669    119.7100  
   474.600     117.350    474.6669    117.3500  
   474.800     134.290    474.8668    134.2900  
   475.000     125.670    475.0668    125.6700  
   475.200     122.690    475.2668    122.6900  
   475.400     135.770    475.4667    135.7700  
   475.600     117.050    475.6667    117.0500  
   475.800     111.270    475.8667    111.2700  
   476.000     125.610    476.0666    125.6100  
   476.200     135.070    476.2666    135.0700  
   476.400     131.050    476.4666    131.0500  
   476.600     111.990    476.6665    111.9900  
   476.800     134.230    476.8665    134.2300  
   477.000     130.990    477.0665    130.9900  
   477.200     112.970    477.2664    112.9700  
   477.400     127.850    477.4664    127.8500  
   477.600     123.590    477.6664    123.5900  
   477.800     113.450    477.8663    113.4500  
   478.000     128.270    478.0663    128.2700  
   478.200     128.610    478.2663    128.6100  
   478.400     122.270    478.4663    122.2700  
   478.600     131.430    478.6662    131.4300  
   478.800     132.470    478.8662    132.4700  
   479.000     125.430    479.0662    125.4300  
   479.200     111.290    479.2661    111.2900  
   479.400     115.010    479.4661    115.0100  
   479.600     116.950    479.6661    116.9500  
   479.800     117.270    479.8660    117.2700  
   480.000     123.370    480.0660    123.3700  
   480.200     128.670    480.2660    128.6700  
   480.400     137.730    480.4659    137.7300  
   480.600     126.370    480.6659    126.3700  
   480.800     124.290    480.8659    124.2900  
   481.000     133.650    481.0658    133.6500  
   481.200     122.270    481.2658    122.2700  
   481.400     127.670    481.4658    127.6700  
   481.600     113.690    481.6657    113.6900  
   481.800     134.070    481.8657    134.0700  
   482.000     119.850    482.0657    119.8500  
   482.200     123.250    482.2656    123.2500  
   482.400     121.730    482.4656    121.7300  
   482.600     117.410    482.6656    117.4100  
   482.800     128.170    482.8655    128.1700  
   483.000     115.030    483.0655    115.0300  
   483.200     127.590    483.2655    127.5900  
   483.400     115.290    483.4654    115.2900  
   483.600     134.550    483.6654    134.5500  
   483.800     128.410    483.8654    128.4100  
   484.000     120.050    484.0653    120.0500  
   484.200     128.230    484.2653    128.2300  
   484.400     123.190    484.4653    123.1900  
   484.600     141.730    484.6652    141.7300  
   484.800     115.030    484.8652    115.0300  
   485.000     127.590    485.0652    127.5900  
   485.200     125.490    485.2651    125.4900  
   485.400     129.610    485.4651    129.6100  
   485.600     137.390    485.6651    137.3900  
   485.800     243.250    485.8650    243.2500  
   486.000     290.150    486.0650    290.1500  
   486.200     229.870    486.2650    229.8700  
   486.400     146.630    486.4649    146.6300  
   486.600     121.430    486.6649    121.4300  
   486.800     113.170    486.8649    113.1700  
   487.000     125.930    487.0648    125.9300  
   487.200     137.790    487.2648    137.7900  
   487.400     117.610    487.4648    117.6100  
   487.600     126.010    487.6647    126.0100  
   487.800     121.050    487.8647    121.0500  
   488.000     127.950    488.0647    127.9500  
   488.200     130.470    488.2646    130.4700  
   488.400     126.870    488.4646    126.8700  
   488.600     113.330    488.6646    113.3300  
   488.800     120.530    488.8646    120.5300  
   489.000     120.270    489.0645    120.2700  
   489.200     105.250    489.2645    105.2500  
   489.400     125.910    489.4645    125.9100  
   489.600     112.630    489.6644    112.6300  
   489.800     124.230    489.8644    124.2300  
   490.000     118.370    490.0644    118.3700  
   490.200     116.950    490.2643    116.9500  
   490.400     124.290    490.4643    124.2900  
   490.600     122.590    490.6643    122.5900  
   490.800     119.330    490.8642    119.3300  
   491.000     113.670    491.0642    113.6700  
   491.200     122.750    491.2642    122.7500  
   491.400     111.550    491.4641    111.5500  
   491.600     126.170    491.6641    126.1700  
   491.800     116.150    491.8641    116.1500  
   492.000     120.010    492.0640    120.0100  
   492.200     123.290    492.2640    123.2900  
   492.400     109.810    492.4640    109.8100  
   492.600     114.010    492.6639    114.0100  
   492.800     119.830    492.8639    119.8300  
   493.000     127.510    493.0639    127.5100  
   493.200     118.490    493.2638    118.4900  
   493.400     116.390    493.4638    116.3900  
   493.600     103.930    493.6638    103.9300  
   493.800     131.170    493.8637    131.1700  
   494.000     123.470    494.0637    123.4700  
   494.200     127.930    494.2637    127.9300  
   494.400     109.850    494.4636    109.8500  
   494.600     126.790    494.6636    126.7900  
   494.800     127.410    494.8636    127.4100  
   495.000     123.310    495.0635    123.3100  
   495.200     128.090    495.2635    128.0900  
   495.400     111.750    495.4635    111.7500  
   495.600     117.110    495.6634    117.1100  
   495.800     117.950    495.8634    117.9500  
   496.000     133.310    496.0634    133.3100  
   496.200     132.010    496.2633    132.0100  
   496.400     119.670    496.4633    119.6700  
   496.600     140.610    496.6633    140.6100  
   496.800     137.150    496.8632    137.1500  
   497.000     140.870    497.0632    140.8700  
   497.200     122.610    497.2632    122.6100  
   497.400     120.870    497.4631    120.8700  
   497.600     131.490    497.6631    131.4900  
   497.800     126.610    497.8631    126.6100  
   498.000     113.870    498.0630    113.8700  
   498.200     122.690    498.2630    122.6900  
   498.400     127.190    498.4630    127.1900  
   498.600     134.990    498.6629    134.9900  
   498.800     124.430    498.8629    124.4300  
   499.000     101.930    499.0629    101.9300  
   499.200     123.830    499.2629    123.8300  
   499.400     133.130    499.4628    133.1300  
   499.600     114.090    499.6628    114.0900  
   499.800     117.510    499.8628    117.5100  
   500.000     112.730    500.0627    112.7300  
   500.200     112.050    500.2627    112.0500  
   500.400     117.470    500.4627    117.4700  
   500.600     128.030    500.6626    128.0300  
   500.800     117.590    500.8626    117.5900  
   501.000     122.370    501.0626    122.3700  
   501.200     124.670    501.2625    124.6700  
   501.400     136.550    501.4625    136.5500  
   501.600     124.310    501.6625    124.3100  
   501.800     127.690    501.8624    127.6900  
   502.000     146.370    502.0624    146.3700  
   502.200     130.430    502.2624    130.4300  
   502.400     122.750    502.4623    122.7500  
   502.600     117.570    502.6623    117.5700  
   502.800     119.030    502.8623    119.0300  
   503.000     134.550    503.0622    134.5500  
   503.200     115.190    503.2622    115.1900  
   503.400     118.850    503.4622    118.8500  
   503.600     130.270    503.6621    130.2700  
   503.800     114.750    503.8621    114.7500  
   504.000     121.150    504.0621    121.1500  
   504.200     116.910    504.2620    116.9100  
   504.400     127.870    504.4620    127.8700  
   504.600     122.050    504.6620    122.0500  
   504.800     122.690    504.8619    122.6900  
   505.000     112.630    505.0619    112.6300  
   505.200     125.790    505.2619    125.7900  
   505.400     111.470    505.4618    111.4700  
   505.600     117.170    505.6618    117.1700  
   505.800     118.130    505.8618    118.1300  
   506.000     104.550    506.0617    104.5500  
   506.200     114.950    506.2617    114.9500  
   506.400     132.070    506.4617    132.0700  
   506.600     109.310    506.6616    109.3100  
   506.800     133.790    506.8616    133.7900  
   507.000     131.150    507.0616    131.1500  
   507.200     133.290    507.2615    133.2900  
   507.400     123.630    507.4615    123.6300  
   507.600     113.690    507.6615    113.6900  
   507.800     119.110    507.8614    119.1100  
   508.000     110.830    508.0614    110.8300  
   508.200     119.310    508.2614    119.3100  
   508.400     120.610    508.4613    120.6100  
   508.600     119.610    508.6613    119.6100  
   508.800     109.470    508.8613    109.4700  
   509.000     128.690    509.0612    128.6900  
   509.200     116.030    509.2612    116.0300  
   509.400     113.950    509.4612    113.9500  
   509.600     126.270    509.6612    126.2700  
   509.800     129.010    509.8611    129.0100  
   510.000     113.590    510.0611    113.5900  
   510.200     124.810    510.2611    124.8100  
   510.400     105.950    510.4610    105.9500  
   510.600     116.330    510.6610    116.3300  
   510.800     119.010    510.8610    119.0100  
   511.000     126.010    511.0609    126.0100  
   511.200     134.550    511.2609    134.5500  
   511.400     110.830    511.4609    110.8300  
   511.600     123.350    511.6608    123.3500  
   511.800     113.570    511.8608    113.5700  
   512.000     125.890    512.0608    125.8900  
   512.200     120.690    512.2607    120.6900  
   512.400     113.410    512.4607    113.4100  
   512.600     127.370    512.6607    127.3700  
   512.800     125.310    512.8606    125.3100  
   513.000     119.230    513.0606    119.2300  
   513.200     113.170    513.2606    113.1700  
   513.400     138.250    513.4605    138.2500  
   513.600     108.870    513.6605    108.8700  
   513.800     127.090    513.8605    127.0900  
   514.000     109.530    514.0604    109.5300  
   514.200     131.350    514.2604    131.3500  
   514.400     117.510    514.4604    117.5100  
   514.600     115.970    514.6603    115.9700  
   514.800     115.370    514.8603    115.3700  
   515.000     136.390    515.0603    136.3900  
   515.200     115.490    515.2602    115.4900  
   515.400     118.250    515.4602    118.2500  
   515.600     118.670    515.6602    118.6700  
   515.800     118.410    515.8601    118.4100  
   516.000     115.570    516.0601    115.5700  
   516.200     126.770    516.2601    126.7700  
   516.400     110.730    516.4600    110.7300  
   516.600     120.430    516.6600    120.4300  
   516.800     134.570    516.8600    134.5700  
   517.000     121.150    517.0599    121.1500  
   517.200     125.470    517.2599    125.4700  
   517.400     118.750    517.4599    118.7500  
   517.600     125.210    517.6598    125.2100  
   517.800     123.970    517.8598    123.9700  
   518.000     112.130    518.0598    112.1300  
   518.200     114.150    518.2597    114.1500  
   518.400     137.350    518.4597    137.3500  
   518.600     122.350    518.6597    122.3500  
   518.800     119.470    518.8596    119.4700  
   519.000     125.690    519.0596    125.6900  
   519.200     128.430    519.2596    128.4300  
   519.400     122.510    519.4595    122.5100  
   519.600     127.830    519.6595    127.8300  
   519.800     110.490    519.8595    110.4900  
   520.000     124.670    520.0594    124.6700  
   520.200     108.350    520.2594    108.3500  
   520.400     127.170    520.4594    127.1700  
   520.600     122.990    520.6594    122.9900  
   520.800     122.130    520.8593    122.1300  
   521.000     113.390    521.0593    113.3900  
   521.200     120.290    521.2593    120.2900  
   521.400     135.990    521.4592    135.9900  
   521.600     118.250    521.6592    118.2500  
   521.800     116.010    521.8592    116.0100  
   522.000     116.510    522.0591    116.5100  
   522.200     122.010    522.2591    122.0100  
   522.400     116.530    522.4591    116.5300  
   522.600     129.870    522.6590    129.8700  
   522.800     115.730    522.8590    115.7300  
   523.000     133.550    523.0590    133.5500  
   523.200     125.370    523.2589    125.3700  
   523.400     119.810    523.4589    119.8100  
   523.600     121.670    523.6589    121.6700  
   523.800     114.270    523.8588    114.2700  
   524.000     122.130    524.0588    122.1300  
   524.200     111.430    524.2588    111.4300  
   524.400     125.290    524.4587    125.2900  
   524.600     132.430    524.6587    132.4300  
   524.800     118.970    524.8587    118.9700  
   525.000     110.150    525.0586    110.1500  
   525.200     128.590    525.2586    128.5900  
   525.400     131.130    525.4586    131.1300  
   525.600     125.850    525.6585    125.8500  
   525.800     116.010    525.8585    116.0100  
   526.000     116.330    526.0585    116.3300  
   526.200     117.510    526.2584    117.5100  
   526.400     119.470    526.4584    119.4700  
   526.600     121.770    526.6584    121.7700  
   526.800     116.730    526.8583    116.7300  
   527.000     112.390    527.0583    112.3900  
   527.200     117.210    527.2583    117.2100  
   527.400     135.730    527.4582    135.7300  
   527.600     117.970    527.6582    117.9700  
   527.800     117.230    527.8582    117.2300  
   528.000     125.930    528.0581    125.9300  
   528.200     112.070    528.2581    112.0700  
   528.400     125.990    528.4581    125.9900  
   528.600     110.430    528.6580    110.4300  
   528.800     118.950    528.8580    118.9500  
   529.000     113.690    529.0580    113.6900  
   529.200     117.910    529.2579    117.9100  
   529.400     107.230    529.4579    107.2300  
   529.600     129.770    529.6579    129.7700  
   529.800     118.410    529.8578    118.4100  
   530.000     122.890    530.0578    122.8900  
   530.200     118.290    530.2578    118.2900  
   530.400     119.430    530.4577    119.4300  
   530.600     120.590    530.6577    120.5900  
   530.800     121.510    530.8577    121.5100  
   531.000     115.450    531.0577    115.4500  
   531.200     126.910    531.2576    126.9100  
   531.400     116.730    531.4576    116.7300  
   531.600     110.550    531.6576    110.5500  
   531.800     122.990    531.8575    122.9900  
   532.000     114.630    532.0575    114.6300  
   532.200     108.750    532.2575    108.7500  
   532.400     119.290    532.4574    119.2900  
   532.600     120.490    532.6574    120.4900  
   532.800     138.210    532.8574    138.2100  
   533.000     166.090    533.0573    166.0900  
   533.200     143.170    533.2573    143.1700  
   533.400     136.530    533.4573    136.5300  
   533.600     109.350    533.6572    109.3500  
   533.800     119.350    533.8572    119.3500  
   534.000     123.250    534.0572    123.2500  
   534.200     137.430    534.2571    137.4300  
   534.400     113.890    534.4571    113.8900  
   534.600     110.110    534.6571    110.1100  
   534.800     113.590    534.8570    113.5900  
   535.000     115.350    535.0570    115.3500  
   535.200     127.370    535.2570    127.3700  
   535.400     129.910    535.4569    129.9100  
   535.600     116.070    535.6569    116.0700  
   535.800     128.330    535.8569    128.3300  
   536.000     121.430    536.0568    121.4300  
   536.200     122.150    536.2568    122.1500  
   536.400     111.110    536.4568    111.1100  
   536.600     115.610    536.6567    115.6100  
   536.800     113.410    536.8567    113.4100  
   537.000     137.870    537.0567    137.8700  
   537.200     127.930    537.2566    127.9300  
   537.400     115.950    537.4566    115.9500  
   537.600     112.350    537.6566    112.3500  
   537.800     121.670    537.8565    121.6700  
   538.000     115.430    538.0565    115.4300  
   538.200     110.290    538.2565    110.2900  
   538.400     107.390    538.4564    107.3900  
   538.600     119.790    538.6564    119.7900  
   538.800     141.310    538.8564    141.3100  
   539.000     115.270    539.0563    115.2700  
   539.200     119.710    539.2563    119.7100  
   539.400     129.610    539.4563    129.6100  
   539.600     172.610    539.6562    172.6100  
   539.800     326.950    539.8562    326.9500  
   540.000     361.170    540.0562    361.1700  a_Ne I    540.05618 nm
   540.200     220.510    540.2713    220.5100  
   540.400     140.590    540.4863    140.5900  
   540.600     118.690    540.7010    118.6900  
   540.800     121.710    540.9155    121.7100  
   541.000     116.230    541.1297    116.2300  
   541.200     112.650    541.3438    112.6500  
   541.400     113.010    541.5576    113.0100  
   541.600     124.950    541.7712    124.9500  
   541.800     123.910    541.9846    123.9100  
   542.000     113.230    542.1978    113.2300  
   542.200     125.190    542.4108    125.1900  
   542.400     114.570    542.6236    114.5700  
   542.600     102.010    542.8361    102.0100  
   542.800     106.450    543.0485    106.4500  
   543.000     110.810    543.2606    110.8100  
   543.200     119.930    543.4725    119.9300  
   543.400     139.310    543.6842    139.3100  
   543.600     144.210    543.8958    144.2100  
   543.800     141.910    544.1071    141.9100  
   544.000     125.690    544.3182    125.6900  
   544.200     105.890    544.5291    105.8900  
   544.400     112.910    544.7398    112.9100  
   544.600     123.170    544.9503    123.1700  
   544.800     126.910    545.1606    126.9100  
   545.000     123.610    545.3708    123.6100  
   545.200     109.350    545.5807    109.3500  
   545.400     131.810    545.7904    131.8100  
   545.600     124.170    545.9999    124.1700  
   545.800     128.550    546.2093    128.5500  
   546.000     127.410    546.4184    127.4100  
   546.200     129.090    546.6274    129.0900  
   546.400     139.930    546.8362    139.9300  
   546.600     122.890    547.0448    122.8900  
   546.800     132.570    547.2532    132.5700  
   547.000     120.230    547.4614    120.2300  
   547.200     111.710    547.6695    111.7100  
   547.400     117.110    547.8773    117.1100  
   547.600     114.090    548.0850    114.0900  
   547.800     111.750    548.2925    111.7500  
   548.000     118.950    548.4998    118.9500  
   548.200     108.390    548.7069    108.3900  
   548.400     124.030    548.9139    124.0300  
   548.600     119.230    549.1207    119.2300  
   548.800     115.470    549.3273    115.4700  
   549.000     113.930    549.5338    113.9300  
   549.200     117.310    549.7400    117.3100  
   549.400     113.830    549.9461    113.8300  
   549.600     132.450    550.1521    132.4500  
   549.800     119.470    550.3578    119.4700  
   550.000     118.430    550.5634    118.4300  
   550.200     123.770    550.7689    123.7700  
   550.400     122.910    550.9741    122.9100  
   550.600     119.050    551.1792    119.0500  
   550.800     113.130    551.3842    113.1300  
   551.000     131.170    551.5890    131.1700  
   551.200     115.230    551.7936    115.2300  
   551.400     120.290    551.9981    120.2900  
   551.600     129.870    552.2024    129.8700  
   551.800     100.110    552.4065    100.1100  
   552.000     124.470    552.6105    124.4700  
   552.200     117.630    552.8144    117.6300  
   552.400     131.870    553.0180    131.8700  
   552.600     122.690    553.2216    122.6900  
   552.800     115.950    553.4250    115.9500  
   553.000     119.010    553.6282    119.0100  
   553.200     111.130    553.8313    111.1300  
   553.400     122.470    554.0343    122.4700  
   553.600     117.170    554.2371    117.1700  
   553.800     123.090    554.4397    123.0900  
   554.000     111.450    554.6422    111.4500  
   554.200     114.270    554.8446    114.2700  
   554.400     124.230    555.0468    124.2300  
   554.600     129.170    555.2489    129.1700  
   554.800     131.190    555.4509    131.1900  
   555.000     122.170    555.6527    122.1700  
   555.200     117.590    555.8544    117.5900  
   555.400     120.290    556.0559    120.2900  
   555.600     123.430    556.2574    123.4300  
   555.800     114.730    556.4586    114.7300  
   556.000     137.170    556.6598    137.1700  
   556.200     119.090    556.8608    119.0900  
   556.400     123.450    557.0617    123.4500  
   556.600     116.730    557.2625    116.7300  
   556.800     128.690    557.4631    128.6900  
   557.000     121.990    557.6636    121.9900  
   557.200     124.870    557.8640    124.8700  
   557.400     113.710    558.0643    113.7100  
   557.600     114.430    558.2644    114.4300  
   557.800     116.650    558.4645    116.6500  
   558.000     123.970    558.6644    123.9700  
   558.200     111.310    558.8642    111.3100  
   558.400     112.170    559.0638    112.1700  
   558.600     125.030    559.2634    125.0300  
   558.800     118.090    559.4628    118.0900  
   559.000     117.930    559.6622    117.9300  
   559.200     112.830    559.8614    112.8300  
   559.400     123.090    560.0605    123.0900  
   559.600     121.410    560.2595    121.4100  
   559.800     115.210    560.4584    115.2100  
   560.000     116.590    560.6571    116.5900  
   560.200     115.930    560.8558    115.9300  
   560.400     110.010    561.0544    110.0100  
   560.600     114.630    561.2528    114.6300  
   560.800     125.330    561.4512    125.3300  
   561.000     110.030    561.6495    110.0300  
   561.200     122.010    561.8476    122.0100  
   561.400     112.310    562.0457    112.3100  
   561.600     120.270    562.2436    120.2700  
   561.800     116.770    562.4415    116.7700  
   562.000     124.870    562.6393    124.8700  
   562.200     116.070    562.8370    116.0700  
   562.400     120.090    563.0345    120.0900  
   562.600     125.690    563.2320    125.6900  
   562.800      99.275    563.4294     99.2750  
   563.000     119.470    563.6267    119.4700  
   563.200     124.370    563.8240    124.3700  
   563.400     129.670    564.0211    129.6700  
   563.600     118.750    564.2182    118.7500  
   563.800     129.210    564.4151    129.2100  
   564.000     122.010    564.6120    122.0100  
   564.200     124.770    564.8088    124.7700  
   564.400     123.510    565.0055    123.5100  
   564.600     116.190    565.2022    116.1900  
   564.800     126.330    565.3987    126.3300  
   565.000     130.350    565.5952    130.3500  
   565.200     118.930    565.7916    118.9300  
   565.400     133.750    565.9879    133.7500  
   565.600     123.110    566.1842    123.1100  
   565.800     127.610    566.3804    127.6100  
   566.000     126.350    566.5765    126.3500  
   566.200     123.930    566.7725    123.9300  
   566.400     114.850    566.9685    114.8500  
   566.600     121.810    567.1644    121.8100  
   566.800     111.670    567.3602    111.6700  
   567.000     114.450    567.5560    114.4500  
   567.200     119.870    567.7517    119.8700  
   567.400     127.050    567.9473    127.0500  
   567.600     117.690    568.1429    117.6900  
   567.800     124.710    568.3384    124.7100  
   568.000     121.490    568.5339    121.4900  
   568.200     129.290    568.7293    129.2900  
   568.400     122.850    568.9246    122.8500  
   568.600     121.950    569.1199    121.9500  
   568.800     133.990    569.3151    133.9900  
   569.000     114.850    569.5103    114.8500  
   569.200     128.910    569.7054    128.9100  
   569.400     122.290    569.9005    122.2900  
   569.600     125.790    570.0955    125.7900  
   569.800     115.750    570.2905    115.7500  
   570.000     136.630    570.4854    136.6300  
   570.200     131.390    570.6803    131.3900  
   570.400     134.110    570.8751    134.1100  
   570.600     123.550    571.0699    123.5500  
   570.800     112.490    571.2646    112.4900  
   571.000     112.250    571.4593    112.2500  
   571.200     106.050    571.6540    106.0500  
   571.400     120.090    571.8486    120.0900  
   571.600     110.130    572.0432    110.1300  
   571.800     124.130    572.2377    124.1300  
   572.000     126.370    572.4322    126.3700  
   572.200     108.830    572.6267    108.8300  
   572.400     111.310    572.8211    111.3100  
   572.600     131.290    573.0155    131.2900  
   572.800     112.790    573.2099    112.7900  
   573.000     113.930    573.4043    113.9300  
   573.200     128.090    573.5986    128.0900  
   573.400     124.730    573.7929    124.7300  
   573.600     128.030    573.9871    128.0300  
   573.800     109.410    574.1813    109.4100  
   574.000     101.570    574.3756    101.5700  
   574.200     124.750    574.5697    124.7500  
   574.400     115.330    574.7639    115.3300  
   574.600     114.690    574.9580    114.6900  
   574.800     100.710    575.1522    100.7100  
   575.000     118.410    575.3463    118.4100  
   575.200     117.370    575.5404    117.3700  
   575.400     120.050    575.7344    120.0500  
   575.600     137.230    575.9285    137.2300  
   575.800     138.590    576.1225    138.5900  
   576.000     123.630    576.3166    123.6300  
   576.200     122.130    576.5106    122.1300  
   576.400     116.310    576.7046    116.3100  
   576.600     134.550    576.8986    134.5500  
   576.800     117.470    577.0926    117.4700  
   577.000     114.550    577.2866    114.5500  
   577.200     117.610    577.4805    117.6100  
   577.400     128.250    577.6745    128.2500  
   577.600     126.650    577.8685    126.6500  
   577.800     116.870    578.0624    116.8700  
   578.000     134.710    578.2564    134.7100  
   578.200     111.670    578.4504    111.6700  
   578.400     114.270    578.6444    114.2700  
   578.600     118.770    578.8383    118.7700  
   578.800     117.510    579.0323    117.5100  
   579.000     122.290    579.2263    122.2900  
   579.200     114.170    579.4203    114.1700  
   579.400     120.310    579.6143    120.3100  
   579.600     112.410    579.8083    112.4100  
   579.800     120.810    580.0023    120.8100  
   580.000     118.630    580.1963    118.6300  
   580.200     127.430    580.3904    127.4300  
   580.400     132.530    580.5844    132.5300  
   580.600     130.230    580.7785    130.2300  
   580.800     117.230    580.9726    117.2300  
   581.000     121.430    581.1667    121.4300  
   581.200     134.030    581.3608    134.0300  
   581.400     142.990    581.5549    142.9900  
   581.600     144.190    581.7491    144.1900  
   581.800     138.410    581.9433    138.4100  
   582.000     126.150    582.1375    126.1500  
   582.200     131.430    582.3317    131.4300  
   582.400     143.230    582.5259    143.2300  
   582.600     116.610    582.7202    116.6100  
   582.800     129.830    582.9145    129.8300  
   583.000     120.950    583.1089    120.9500  
   583.200     137.990    583.3032    137.9900  
   583.400     148.790    583.4976    148.7900  
   583.600     148.210    583.6920    148.2100  
   583.800     156.050    583.8865    156.0500  
   584.000     168.610    584.0810    168.6100  
   584.200     172.290    584.2755    172.2900  
   584.400     188.310    584.4701    188.3100  
   584.600     253.470    584.6647    253.4700  
   584.800     548.490    584.8594    548.4900  
   585.000    5448.700    585.0541   5448.7000  
   585.200   10085.000    585.2488  10085.0000  a_Ne I    585.24879 nm
   585.400    9974.700    585.4436   9974.7000  
   585.600    4558.500    585.6384   4558.5000  
   585.800     486.190    585.8334    486.1900  
   586.000     254.330    586.0284    254.3300  
   586.200     166.070    586.2236    166.0700  
   586.400     154.010    586.4190    154.0100  
   586.600     120.410    586.6146    120.4100  
   586.800     125.450    586.8104    125.4500  
   587.000     122.450    587.0065    122.4500  
   587.200     122.790    587.2028    122.7900  
   587.400     119.550    587.3994    119.5500  
   587.600     139.370    587.5964    139.3700  
   587.800     631.430    587.7937    631.4300  
   588.000    1615.700    587.9914   1615.7000  
   588.200    2284.000    588.1895   2284.0000  a_Ne I    588.18952 nm
   588.400    1498.300    588.3881   1498.3000  
   588.600     184.970    588.5870    184.9700  
   588.800     115.350    588.7863    115.3500  
   589.000     128.490    588.9861    128.4900  
   589.200     134.630    589.1862    134.6300  
   589.400     118.710    589.3866    118.7100  
   589.600     110.310    589.5874    110.3100  
   589.800     115.230    589.7886    115.2300  
   590.000     122.870    589.9900    122.8700  
   590.200     121.170    590.1917    121.1700  
   590.400     137.050    590.3937    137.0500  
   590.600     123.730    590.5960    123.7300  
   590.800     123.170    590.7985    123.1700  
   591.000     130.250    591.0012    130.2500  
   591.200     118.730    591.2042    118.7300  
   591.400     123.670    591.4073    123.6700  
   591.600     133.190    591.6107    133.1900  
   591.800     119.150    591.8142    119.1500  
   592.000     122.710    592.0178    122.7100  
   592.200     128.450    592.2216    128.4500  
   592.400     117.550    592.4255    117.5500  
   592.600     109.090    592.6295    109.0900  
   592.800     123.890    592.8337    123.8900  
   593.000     137.470    593.0378    137.4700  
   593.200     123.090    593.2421    123.0900  
   593.400     127.390    593.4464    127.3900  
   593.600     135.330    593.6507    135.3300  
   593.800     142.470    593.8550    142.4700  
   594.000     521.450    594.0594    521.4500  
   594.200    1957.800    594.2637   1957.8000  
   594.400    2868.200    594.4679   2868.2000  a_Ne I    594.48342 nm
   594.600    1563.500    594.6722   1563.5000  
   594.800     494.110    594.8763    494.1100  
   595.000     119.850    595.0804    119.8500  
   595.200     114.990    595.2844    114.9900  
   595.400     105.870    595.4883    105.8700  
   595.600     125.870    595.6920    125.8700  
   595.800     137.930    595.8956    137.9300  
   596.000     128.290    596.0991    128.2900  
   596.200     120.450    596.3024    120.4500  
   596.400     126.550    596.5054    126.5500  
   596.600     101.890    596.7083    101.8900  
   596.800     128.510    596.9110    128.5100  
   597.000     116.270    597.1134    116.2700  
   597.200     288.070    597.3156    288.0700  
   597.400     656.790    597.5175    656.7900  
   597.600     789.410    597.7191    789.4100  
   597.800     419.450    597.9205    419.4500  
   598.000     151.010    598.1215    151.0100  
   598.200     131.150    598.3222    131.1500  
   598.400     125.510    598.5225    125.5100  
   598.600     122.250    598.7225    122.2500  
   598.800     123.310    598.9221    123.3100  
   599.000     122.550    599.1213    122.5500  
   599.200     116.870    599.3201    116.8700  
   599.400     116.870    599.5185    116.8700  
   599.600     117.870    599.7165    117.8700  
   599.800     115.490    599.9140    115.4900  
   600.000     133.030    600.1110    133.0300  
   600.200     115.870    600.3075    115.8700  
   600.400     122.030    600.5036    122.0300  
   600.600     112.510    600.6991    112.5100  
   600.800     122.030    600.8941    122.0300  
   601.000     122.610    601.0886    122.6100  
   601.200     109.350    601.2825    109.3500  
   601.400     116.710    601.4758    116.7100  
   601.600     122.810    601.6685    122.8100  
   601.800     131.170    601.8606    131.1700  
   602.000     122.010    602.0521    122.0100  
   602.200     144.890    602.2430    144.8900  
   602.400     133.010    602.4332    133.0100  
   602.600     155.410    602.6227    155.4100  
   602.800     519.750    602.8115    519.7500  
   603.000    1147.600    602.9997   1147.6000  a_Ne I    602.99969 nm
   603.200     932.370    603.1871    932.3700  
   603.400     356.250    603.3740    356.2500  
   603.600     126.490    603.5605    126.4900  
   603.800     125.190    603.7467    125.1900  
   604.000     117.090    603.9328    117.0900  
   604.200     118.250    604.1189    118.2500  
   604.400     127.090    604.3052    127.0900  
   604.600     133.270    604.4918    133.2700  
   604.800     123.210    604.6790    123.2100  
   605.000     120.470    604.8667    120.4700  
   605.200     126.510    605.0553    126.5100  
   605.400     110.230    605.2448    110.2300  
   605.600     131.430    605.4353    131.4300  
   605.800     113.630    605.6271    113.6300  
   606.000     122.370    605.8203    122.3700  
   606.200     127.150    606.0150    127.1500  
   606.400     110.890    606.2115    110.8900  
   606.600     132.730    606.4097    132.7300  
   606.800     112.150    606.6099    112.1500  
   607.000     140.330    606.8123    140.3300  
   607.200     570.210    607.0170    570.2100  
   607.400    1760.500    607.2241   1760.5000  
   607.600    2217.300    607.4338   2217.3000  a_Ne I    607.43377 nm
   607.800     980.390    607.6461    980.3900  
   608.000     158.930    607.8608    158.9300  
   608.200     135.990    608.0774    135.9900  
   608.400     118.370    608.2957    118.3700  
   608.600     132.950    608.5151    132.9500  
   608.800     131.530    608.7353    131.5300  
   609.000     138.930    608.9559    138.9300  
   609.200     298.190    609.1765    298.1900  
   609.400    1991.400    609.3968   1991.4000  
   609.600    4014.300    609.6163   4014.3000  a_Ne I    609.61631 nm
   609.800    2758.500    609.8347   2758.5000  
   610.000     536.210    610.0521    536.2100  
   610.200     129.590    610.2683    129.5900  
   610.400     107.090    610.4834    107.0900  
   610.600     129.390    610.6975    129.3900  
   610.800     117.870    610.9106    117.8700  
   611.000     119.510    611.1226    119.5100  
   611.200     130.490    611.3337    130.4900  
   611.400     119.410    611.5438    119.4100  
   611.600     116.650    611.7530    116.6500  
   611.800     128.370    611.9613    128.3700  
   612.000     117.070    612.1687    117.0700  
   612.200     130.850    612.3752    130.8500  
   612.400     139.810    612.5809    139.8100  
   612.600     182.270    612.7857    182.2700  
   612.800     259.010    612.9898    259.0100  
   613.000     209.910    613.1931    209.9100  
   613.200     167.170    613.3956    167.1700  
   613.400     132.670    613.5974    132.6700  
   613.600     155.550    613.7985    155.5500  
   613.800     182.890    613.9989    182.8900  
   614.000    2270.100    614.1987   2270.1000  
   614.200    5007.200    614.3978   5007.2000  
   614.400    5138.500    614.5964   5138.5000  
   614.600    2190.100    614.7943   2190.1000  
   614.800     136.390    614.9917    136.3900  
   615.000     136.570    615.1885    136.5700  
   615.200     140.390    615.3848    140.3900  
   615.400     137.870    615.5806    137.8700  
   615.600     161.730    615.7760    161.7300  
   615.800     176.990    615.9709    176.9900  
   616.000    1057.900    616.1653   1057.9000  
   616.200    2135.800    616.3594   2135.8000  a_Ne I    616.35939 nm
   616.400    2047.200    616.5531   2047.2000  
   616.600    1026.700    616.7464   1026.7000  
   616.800     131.670    616.9394    131.6700  
   617.000     134.670    617.1321    134.6700  
   617.200     128.550    617.3245    128.5500  
   617.400     108.370    617.5167    108.3700  
   617.600     111.330    617.7086    111.3300  
   617.800     138.050    617.9003    138.0500  
   618.000     136.890    618.0918    136.8900  
   618.200     148.270    618.2832    148.2700  
   618.400     135.070    618.4744    135.0700  
   618.600     118.570    618.6656    118.5700  
   618.800     120.890    618.8566    120.8900  
   619.000     134.970    619.0476    134.9700  
   619.200     136.990    619.2385    136.9900  
   619.400     127.530    619.4294    127.5300  
   619.600     124.890    619.6203    124.8900  
   619.800     133.770    619.8113    133.7700  
   620.000     130.210    620.0023    130.2100  
   620.200     132.630    620.1934    132.6300  
   620.400     121.650    620.3846    121.6500  
   620.600     116.090    620.5760    116.0900  
   620.800     116.170    620.7675    116.1700  
   621.000     124.250    620.9591    124.2500  
   621.200     133.670    621.1510    133.6700  
   621.400     571.410    621.3431    571.4100  
   621.600    1174.300    621.5355   1174.3000  
   621.800    1556.000    621.7281   1556.0000  a_Ne I    621.72812 nm
   622.000     908.370    621.9211    908.3700  
   622.200     140.570    622.1143    140.5700  
   622.400     126.930    622.3078    126.9300  
   622.600     113.650    622.5017    113.6500  
   622.800     117.390    622.6959    117.3900  
   623.000     123.030    622.8904    123.0300  
   623.200     112.550    623.0852    112.5500  
   623.400     115.850    623.2803    115.8500  
   623.600     121.330    623.4757    121.3300  
   623.800     120.430    623.6715    120.4300  
   624.000     112.130    623.8676    112.1300  
   624.200     122.710    624.0641    122.7100  
   624.400     116.670    624.2609    116.6700  
   624.600     117.270    624.4580    117.2700  
   624.800     121.230    624.6554    121.2300  
   625.000     129.410    624.8532    129.4100  
   625.200     137.270    625.0514    137.2700  
   625.400     125.010    625.2499    125.0100  
   625.600     121.610    625.4488    121.6100  
   625.800     128.210    625.6480    128.2100  
   626.000     128.150    625.8476    128.1500  
   626.200     143.090    626.0475    143.0900  
   626.400    1254.100    626.2478   1254.1000  
   626.600    2780.900    626.4485   2780.9000  
   626.800    3776.600    626.6495   3776.6000  a_Ne I    626.64950 nm
   627.000    2155.700    626.8509   2155.7000  
   627.200     209.330    627.0526    209.3300  
   627.400     122.590    627.2546    122.5900  
   627.600     128.910    627.4568    128.9100  
   627.800     128.970    627.6592    128.9700  
   628.000     114.130    627.8617    114.1300  
   628.200     115.550    628.0642    115.5500  
   628.400     117.770    628.2667    117.7700  
   628.600     111.050    628.4692    111.0500  
   628.800     124.550    628.6715    124.5500  
   629.000     110.250    628.8737    110.2500  
   629.200     124.070    629.0757    124.0700  
   629.400     121.490    629.2774    121.4900  
   629.600     134.550    629.4787    134.5500  
   629.800     129.490    629.6797    129.4900  
   630.000     116.030    629.8803    116.0300  
   630.200     160.090    630.0804    160.0900  
   630.400     566.770    630.2799    566.7700  
   630.600     937.890    630.4789    937.8900  a_Ne I    630.47889 nm
   630.800     665.690    630.6772    665.6900  
   631.000     306.090    630.8750    306.0900  
   631.200     126.730    631.0723    126.7300  
   631.400     129.490    631.2693    129.4900  
   631.600     128.990    631.4661    128.9900  
   631.800     124.490    631.6627    124.4900  
   632.000     128.430    631.8593    128.4300  
   632.200     119.750    632.0560    119.7500  
   632.400     125.150    632.2528    125.1500  
   632.600     114.070    632.4498    114.0700  
   632.800     125.270    632.6473    125.2700  
   633.000     126.570    632.8452    126.5700  
   633.200     199.810    633.0437    199.8100  
   633.400    1133.400    633.2428   1133.4000  
   633.600    1825.300    633.4428   1825.3000  a_Ne I    633.44278 nm
   633.800    1158.200    633.6436   1158.2000  
   634.000     499.190    633.8451    499.1900  
   634.200     124.390    634.0474    124.3900  
   634.400     119.590    634.2502    119.5900  
   634.600     125.550    634.4536    125.5500  
   634.800     115.230    634.6575    115.2300  
   635.000     127.650    634.8616    127.6500  
   635.200     125.290    635.0660    125.2900  
   635.400     122.770    635.2706    122.7700  
   635.600     128.650    635.4753    128.6500  
   635.800     119.110    635.6800    119.1100  
   636.000     120.190    635.8845    120.1900  
   636.200     118.430    636.0889    118.4300  
   636.400     120.670    636.2930    120.6700  
   636.600     127.050    636.4967    127.0500  
   636.800     132.170    636.7000    132.1700  
   637.000     137.570    636.9027    137.5700  
   637.200     124.070    637.1048    124.0700  
   637.400     126.530    637.3062    126.5300  
   637.600     133.250    637.5067    133.2500  
   637.800     150.170    637.7064    150.1700  
   638.000     536.630    637.9051    536.6300  
   638.200    2938.800    638.1027   2938.8000  
   638.400    6597.900    638.2992   6597.9000  a_Ne I    638.29917 nm
   638.600    4601.700    638.4944   4601.7000  
   638.800    1089.300    638.6886   1089.3000  
   639.000     137.150    638.8819    137.1500  
   639.200     110.350    639.0744    110.3500  
   639.400     138.450    639.2664    138.4500  
   639.600     147.610    639.4581    147.6100  
   639.800     151.830    639.6496    151.8300  
   640.000    1255.500    639.8410   1255.5000  
   640.200    2986.200    640.0326   2986.2000  
   640.400    3867.900    640.2246   3867.9000  a_Ne I    640.22460 nm
   640.600    1894.600    640.4171   1894.6000  
   640.800     140.470    640.6100    140.4700  
   641.000     124.890    640.8035    124.8900  
   641.200     115.090    640.9975    115.0900  
   641.400     123.750    641.1919    123.7500  
   641.600     122.250    641.3868    122.2500  
   641.800     120.450    641.5821    120.4500  
   642.000     126.030    641.7779    126.0300  
   642.200     119.570    641.9741    119.5700  
   642.400     135.530    642.1708    135.5300  
   642.600     131.370    642.3678    131.3700  
   642.800     110.350    642.5653    110.3500  
   643.000     118.250    642.7631    118.2500  
   643.200     113.330    642.9613    113.3300  
   643.400     111.190    643.1598    111.1900  
   643.600     111.090    643.3587    111.0900  
   643.800     125.070    643.5580    125.0700  
   644.000     113.230    643.7575    113.2300  
   644.200     105.370    643.9574    105.3700  
   644.400     127.350    644.1576    127.3500  
   644.600     121.010    644.3581    121.0100  
   644.800     135.570    644.5588    135.5700  
   645.000     117.050    644.7598    117.0500  
   645.200     118.030    644.9611    118.0300  
   645.400     117.710    645.1626    117.7100  
   645.600     128.450    645.3643    128.4500  
   645.800     110.990    645.5663    110.9900  
   646.000     114.190    645.7685    114.1900  
   646.200     109.010    645.9708    109.0100  
   646.400     125.890    646.1734    125.8900  
   646.600     116.990    646.3761    116.9900  
   646.800     114.750    646.5790    114.7500  
   647.000     104.610    646.7820    104.6100  
   647.200     124.110    646.9852    124.1100  
   647.400     114.750    647.1885    114.7500  
   647.600     123.790    647.3919    123.7900  
   647.800     110.850    647.5954    110.8500  
   648.000     114.350    647.7991    114.3500  
   648.200     108.630    648.0028    108.6300  
   648.400     122.370    648.2065    122.3700  
   648.600     114.310    648.4103    114.3100  
   648.800     123.970    648.6142    123.9700  
   649.000     115.230    648.8181    115.2300  
   649.200     121.210    649.0220    121.2100  
   649.400     127.170    649.2260    127.1700  
   649.600     134.650    649.4299    134.6500  
   649.800     119.310    649.6338    119.3100  
   650.000     128.290    649.8377    128.2900  
   650.200     132.230    650.0416    132.2300  
   650.400     488.090    650.2454    488.0900  
   650.600    1562.600    650.4491   1562.6000  
   650.800    2572.300    650.6528   2572.3000  a_Ne I    650.65281 nm
   651.000    1087.400    650.8564   1087.4000  
   651.200     168.770    651.0599    168.7700  
   651.400     116.630    651.2633    116.6300  
   651.600     114.970    651.4666    114.9700  
   651.800     117.010    651.6697    117.0100  
   652.000     117.090    651.8727    117.0900  
   652.200     121.230    652.0755    121.2300  
   652.400     119.330    652.2781    119.3300  
   652.600     130.590    652.4806    130.5900  
   652.800     128.250    652.6828    128.2500  
   653.000     222.790    652.8849    222.7900  
   653.200     857.030    653.0867    857.0300  
   653.400    1658.800    653.2882   1658.8000  a_Ne I    653.28822 nm
   653.600    1148.800    653.4895   1148.8000  
   653.800     319.090    653.6906    319.0900  
   654.000     110.190    653.8914    110.1900  
   654.200     126.170    654.0920    126.1700  
   654.400     129.910    654.2925    129.9100  
   654.600      99.835    654.4928     99.8350  
   654.800     114.830    654.6929    114.8300  
   655.000     117.310    654.8929    117.3100  
   655.200     114.630    655.0928    114.6300  
   655.400     116.670    655.2926    116.6700  
   655.600     118.670    655.4924    118.6700  
   655.800     117.830    655.6920    117.8300  
   656.000     168.470    655.8917    168.4700  
   656.200     265.670    656.0913    265.6700  
   656.400     375.870    656.2909    375.8700  a_H  I    656.27247 nm
   656.600     286.350    656.4906    286.3500  
   656.800     148.630    656.6903    148.6300  
   657.000     123.630    656.8900    123.6300  
   657.200     128.770    657.0897    128.7700  
   657.400     117.950    657.2895    117.9500  
   657.600     140.330    657.4894    140.3300  
   657.800     131.930    657.6893    131.9300  
   658.000     126.790    657.8893    126.7900  
   658.200     113.310    658.0894    113.3100  
   658.400     115.230    658.2896    115.2300  
   658.600     126.490    658.4899    126.4900  
   658.800     123.990    658.6903    123.9900  
   659.000     134.710    658.8908    134.7100  
   659.200     131.730    659.0914    131.7300  
   659.400     141.650    659.2922    141.6500  
   659.600     224.830    659.4931    224.8300  
   659.800    1004.900    659.6941   1004.9000  
   660.000    1752.500    659.8953   1752.5000  a_Ne I    659.89529 nm
   660.200    1389.500    660.0966   1389.5000  
   660.400     628.030    660.2982    628.0300  
   660.600     180.050    660.4998    180.0500  
   660.800     141.070    660.7016    141.0700  
   661.000     139.670    660.9036    139.6700  
   661.200     127.130    661.1057    127.1300  
   661.400     120.090    661.3079    120.0900  
   661.600     115.930    661.5103    115.9300  
   661.800     106.550    661.7128    106.5500  
   662.000     126.410    661.9154    126.4100  
   662.200     122.990    662.1182    122.9900  
   662.400     121.330    662.3211    121.3300  
   662.600     114.610    662.5240    114.6100  
   662.800     115.330    662.7271    115.3300  
   663.000     117.890    662.9303    117.8900  
   663.200     118.670    663.1336    118.6700  
   663.400     119.430    663.3370    119.4300  
   663.600     124.470    663.5405    124.4700  
   663.800     114.550    663.7440    114.5500  
   664.000     112.690    663.9477    112.6900  
   664.200     117.770    664.1514    117.7700  
   664.400     108.450    664.3552    108.4500  
   664.600     126.290    664.5591    126.2900  
   664.800     113.410    664.7631    113.4100  
   665.000     113.450    664.9671    113.4500  
   665.200     123.610    665.1711    123.6100  
   665.400     125.590    665.3753    125.5900  
   665.600     129.210    665.5794    129.2100  
   665.800     114.010    665.7837    114.0100  
   666.000     120.370    665.9879    120.3700  
   666.200     119.190    666.1922    119.1900  
   666.400     118.950    666.3966    118.9500  
   666.600     126.330    666.6010    126.3300  
   666.800     134.090    666.8054    134.0900  
   667.000     130.610    667.0098    130.6100  
   667.200     151.190    667.2142    151.1900  
   667.400     282.810    667.4187    282.8100  
   667.600    1089.900    667.6231   1089.9000  
   667.800    2181.300    667.8276   2181.3000  a_Ne I    667.82762 nm
   668.000    1083.400    668.0321   1083.4000  
   668.200     324.510    668.2366    324.5100  
   668.400     170.030    668.4410    170.0300  
   668.600     148.170    668.6455    148.1700  
   668.800     120.770    668.8499    120.7700  
   669.000     124.450    669.0542    124.4500  
   669.200     127.590    669.2586    127.5900  
   669.400     127.230    669.4628    127.2300  
   669.600     116.270    669.6671    116.2700  
   669.800     118.310    669.8712    118.3100  
   670.000     125.610    670.0753    125.6100  
   670.200     119.990    670.2793    119.9900  
   670.400     118.530    670.4832    118.5300  
   670.600     120.090    670.6870    120.0900  
   670.800     120.010    670.8907    120.0100  
   671.000     153.150    671.0943    153.1500  
   671.200     175.270    671.2978    175.2700  
   671.400     816.150    671.5011    816.1500  
   671.600    1516.900    671.7043   1516.9000  a_Ne I    671.70430 nm
   671.800    1473.400    671.9074   1473.4000  
   672.000     793.730    672.1103    793.7300  
   672.200     206.870    672.3131    206.8700  
   672.400     149.410    672.5157    149.4100  
   672.600     141.250    672.7182    141.2500  
   672.800     116.290    672.9206    116.2900  
   673.000     127.390    673.1228    127.3900  
   673.200     108.990    673.3249    108.9900  
   673.400     111.230    673.5269    111.2300  
   673.600     116.150    673.7288    116.1500  
   673.800     125.470    673.9305    125.4700  
   674.000     109.050    674.1321    109.0500  
   674.200     119.350    674.3335    119.3500  
   674.400     105.870    674.5349    105.8700  
   674.600     116.650    674.7361    116.6500  
   674.800     100.130    674.9372    100.1300  
   675.000     109.310    675.1382    109.3100  
   675.200     105.410    675.3391    105.4100  
   675.400     124.330    675.5398    124.3300  
   675.600     109.410    675.7405    109.4100  
   675.800     127.690    675.9410    127.6900  
   676.000     115.290    676.1414    115.2900  
   676.200     117.810    676.3418    117.8100  
   676.400     118.390    676.5420    118.3900  
   676.600     122.570    676.7421    122.5700  
   676.800     116.170    676.9421    116.1700  
   677.000     111.050    677.1420    111.0500  
   677.200     123.930    677.3418    123.9300  
   677.400     127.110    677.5415    127.1100  
   677.600     126.390    677.7411    126.3900  
   677.800     140.350    677.9406    140.3500  
   678.000     109.070    678.1400    109.0700  
   678.200     117.190    678.3393    117.1900  
   678.400     105.550    678.5386    105.5500  
   678.600     114.150    678.7377    114.1500  
   678.800     112.690    678.9368    112.6900  
   679.000     136.450    679.1357    136.4500  
   679.200     117.930    679.3346    117.9300  
   679.400     101.750    679.5334    101.7500  
   679.600     110.970    679.7321    110.9700  
   679.800     117.730    679.9308    117.7300  
   680.000     117.310    680.1294    117.3100  
   680.200     122.910    680.3279    122.9100  
   680.400     112.310    680.5263    112.3100  
   680.600     104.590    680.7246    104.5900  
   680.800     109.390    680.9229    109.3900  
   681.000     114.070    681.1211    114.0700  
   681.200     120.250    681.3192    120.2500  
   681.400     123.970    681.5173    123.9700  
   681.600     124.190    681.7153    124.1900  
   681.800     109.710    681.9132    109.7100  
   682.000     101.970    682.1111    101.9700  
   682.200     112.890    682.3089    112.8900  
   682.400      96.515    682.5067     96.5150  
   682.600     113.290    682.7044    113.2900  
   682.800     113.530    682.9021    113.5300  
   683.000     122.230    683.0997    122.2300  
   683.200     106.350    683.2972    106.3500  
   683.400     132.250    683.4947    132.2500  
   683.600     115.210    683.6921    115.2100  
   683.800     125.390    683.8895    125.3900  
   684.000     114.650    684.0869    114.6500  
   684.200     122.250    684.2842    122.2500  
   684.400     113.390    684.4815    113.3900  
   684.600     121.390    684.6787    121.3900  
   684.800     121.270    684.8759    121.2700  
   685.000     114.510    685.0730    114.5100  
   685.200     116.270    685.2702    116.2700  
   685.400     118.150    685.4672    118.1500  
   685.600     115.250    685.6643    115.2500  
   685.800     111.810    685.8613    111.8100  
   686.000     117.050    686.0583    117.0500  
   686.200     103.170    686.2552    103.1700  
   686.400     116.430    686.4522    116.4300  
   686.600     107.830    686.6491    107.8300  
   686.800     115.030    686.8460    115.0300  
   687.000     125.690    687.0428    125.6900  
   687.200     123.230    687.2397    123.2300  
   687.400     121.770    687.4365    121.7700  
   687.600     118.250    687.6333    118.2500  
   687.800     125.850    687.8301    125.8500  
   688.000     122.130    688.0269    122.1300  
   688.200     114.050    688.2237    114.0500  
   688.400     108.430    688.4204    108.4300  
   688.600     122.950    688.6172    122.9500  
   688.800     114.870    688.8139    114.8700  
   689.000     118.690    689.0106    118.6900  
   689.200     117.790    689.2074    117.7900  
   689.400     114.670    689.4041    114.6700  
   689.600     118.950    689.6008    118.9500  
   689.800     123.070    689.7976    123.0700  
   690.000     121.210    689.9943    121.2100  
   690.200     121.650    690.1910    121.6500  
   690.400     122.450    690.3878    122.4500  
   690.600     115.050    690.5845    115.0500  
   690.800     107.090    690.7813    107.0900  
   691.000     116.790    690.9781    116.7900  
   691.200     128.290    691.1749    128.2900  
   691.400     113.470    691.3717    113.4700  
   691.600     119.930    691.5685    119.9300  
   691.800     124.230    691.7653    124.2300  
   692.000     144.730    691.9621    144.7300  
   692.200     133.170    692.1590    133.1700  
   692.400     135.650    692.3559    135.6500  
   692.600     201.190    692.5528    201.1900  
   692.800     645.170    692.7498    645.1700  
   693.000    1535.700    692.9467   1535.7000  a_Ne I    692.94673 nm
   693.200    1506.000    693.1437   1506.0000  
   693.400     686.990    693.3407    686.9900  
   693.600     179.590    693.5378    179.5900  
   693.800     153.370    693.7349    153.3700  
   694.000     123.330    693.9320    123.3300  
   694.200     133.230    694.1291    133.2300  
   694.400     128.330    694.3263    128.3300  
   694.600     121.450    694.5235    121.4500  
   694.800     111.810    694.7208    111.8100  
   695.000     118.590    694.9180    118.5900  
   695.200     121.170    695.1154    121.1700  
   695.400     125.190    695.3127    125.1900  
   695.600     125.030    695.5101    125.0300  
   695.800     111.630    695.7075    111.6300  
   696.000     119.710    695.9049    119.7100  
   696.200     129.130    696.1024    129.1300  
   696.400     133.550    696.3000    133.5500  
   696.600     124.970    696.4975    124.9700  
   696.800     117.550    696.6951    117.5500  
   697.000     113.850    696.8928    113.8500  
   697.200     115.750    697.0904    115.7500  
   697.400     120.770    697.2882    120.7700  
   697.600     100.030    697.4859    100.0300  
   697.800     125.010    697.6837    125.0100  
   698.000     120.410    697.8816    120.4100  
   698.200     115.730    698.0795    115.7300  
   698.400     120.030    698.2774    120.0300  
   698.600     125.030    698.4754    125.0300  
   698.800     115.150    698.6734    115.1500  
   699.000     117.590    698.8714    117.5900  
   699.200     115.130    699.0695    115.1300  
   699.400     112.450    699.2677    112.4500  
   699.600     114.390    699.4659    114.3900  
   699.800     121.570    699.6641    121.5700  
   700.000     126.130    699.8624    126.1300  
   700.200     128.170    700.0608    128.1700  
   700.400     131.670    700.2592    131.6700  
   700.600     118.570    700.4576    118.5700  
   700.800     125.150    700.6561    125.1500  
   701.000     127.870    700.8547    127.8700  
   701.200     135.730    701.0532    135.7300  
   701.400     137.190    701.2519    137.1900  
   701.600     147.070    701.4506    147.0700  
   701.800     149.570    701.6493    149.5700  
   702.000     183.690    701.8481    183.6900  
   702.200     221.930    702.0470    221.9300  
   702.400     321.570    702.2459    321.5700  
   702.600     388.530    702.4449    388.5300  
   702.800     358.130    702.6439    358.1300  
   703.000    1979.600    702.8430   1979.6000  
   703.200   12698.000    703.0421  12698.0000  
   703.400   18089.000    703.2413  18089.0000  a_Ne I    703.24131 nm
   703.600    8898.900    703.4406   8898.9000  
   703.800    1594.200    703.6399   1594.2000  
   704.000     145.070    703.8392    145.0700  
   704.200     143.690    704.0387    143.6900  
   704.400     134.210    704.2381    134.2100  
   704.600     134.910    704.4377    134.9100  
   704.800     129.050    704.6372    129.0500  
   705.000     117.130    704.8369    117.1300  
   705.200     117.210    705.0365    117.2100  
   705.400     122.290    705.2363    122.2900  
   705.600     113.970    705.4361    113.9700  
   705.800     128.810    705.6359    128.8100  
   706.000     127.510    705.8358    127.5100  
   706.200     116.750    706.0357    116.7500  
   706.400     109.330    706.2357    109.3300  
   706.600     124.970    706.4357    124.9700  
   706.800     121.450    706.6358    121.4500  
   707.000     125.510    706.8359    125.5100  
   707.200     114.870    707.0360    114.8700  
   707.400     123.850    707.2362    123.8500  
   707.600     115.250    707.4364    115.2500  
   707.800     120.870    707.6367    120.8700  
   708.000     112.670    707.8370    112.6700  
   708.200     112.610    708.0374    112.6100  
   708.400     115.190    708.2378    115.1900  
   708.600     110.530    708.4382    110.5300  
   708.800     128.610    708.6386    128.6100  
   709.000     121.770    708.8391    121.7700  
   709.200     113.910    709.0397    113.9100  
   709.400     110.610    709.2402    110.6100  
   709.600     116.450    709.4408    116.4500  
   709.800     114.590    709.6414    114.5900  
   710.000     123.410    709.8421    123.4100  
   710.200     124.390    710.0428    124.3900  
   710.400     114.870    710.2435    114.8700  
   710.600     111.430    710.4443    111.4300  
   710.800     118.550    710.6450    118.5500  
   711.000     122.030    710.8458    122.0300  
   711.200     110.850    711.0467    110.8500  
   711.400     133.770    711.2475    133.7700  
   711.600     129.670    711.4484    129.6700  
   711.800     115.310    711.6493    115.3100  
   712.000     124.990    711.8502    124.9900  
   712.200     112.030    712.0511    112.0300  
   712.400     111.650    712.2521    111.6500  
   712.600     120.530    712.4531    120.5300  
   712.800     109.230    712.6541    109.2300  
   713.000     121.950    712.8551    121.9500  
   713.200     132.570    713.0562    132.5700  
   713.400     113.770    713.2572    113.7700  
   713.600     101.130    713.4583    101.1300  
   713.800     104.030    713.6594    104.0300  
   714.000     118.190    713.8605    118.1900  
   714.200     115.930    714.0616    115.9300  
   714.400     124.550    714.2627    124.5500  
   714.600     109.710    714.4638    109.7100  
   714.800     122.150    714.6650    122.1500  
   715.000     121.490    714.8661    121.4900  
   715.200     117.710    715.0673    117.7100  
   715.400     118.150    715.2685    118.1500  
   715.600     121.550    715.4697    121.5500  
   715.800     118.190    715.6708    118.1900  
   716.000     110.490    715.8720    110.4900  
   716.200     116.170    716.0732    116.1700  
   716.400     118.070    716.2744    118.0700  
   716.600     110.490    716.4756    110.4900  
   716.800     106.350    716.6768    106.3500  
   717.000     132.830    716.8781    132.8300  
   717.200     184.470    717.0793    184.4700  
   717.400     247.370    717.2805    247.3700  
   717.600     204.830    717.4817    204.8300  
   717.800     141.590    717.6829    141.5900  
   718.000     121.830    717.8841    121.8300  
   718.200     131.230    718.0853    131.2300  
   718.400     125.130    718.2865    125.1300  
   718.600     125.750    718.4877    125.7500  
   718.800     118.190    718.6889    118.1900  
   719.000     110.710    718.8900    110.7100  
   719.200     126.510    719.0912    126.5100  
   719.400     117.090    719.2924    117.0900  
   719.600     118.410    719.4935    118.4100  
   719.800     111.750    719.6946    111.7500  
   720.000     121.310    719.8958    121.3100  
   720.200     118.570    720.0969    118.5700  
   720.400     123.650    720.2980    123.6500  
   720.600     113.350    720.4991    113.3500  
   720.800     112.450    720.7002    112.4500  
   721.000     110.170    720.9012    110.1700  
   721.200     121.970    721.1023    121.9700  
   721.400     122.670    721.3033    122.6700  
   721.600     108.170    721.5043    108.1700  
   721.800     118.490    721.7053    118.4900  
   722.000     133.210    721.9062    133.2100  
   722.200     122.270    722.1072    122.2700  
   722.400     130.730    722.3081    130.7300  
   722.600     126.750    722.5090    126.7500  
   722.800     115.870    722.7099    115.8700  
   723.000     144.150    722.9108    144.1500  
   723.200     146.810    723.1116    146.8100  
   723.400     151.070    723.3124    151.0700  
   723.600     144.990    723.5132    144.9900  
   723.800     166.870    723.7139    166.8700  
   724.000     186.050    723.9147    186.0500  
   724.200    1950.600    724.1154   1950.6000  
   724.400    5796.400    724.3160   5796.4000  
   724.600    6460.800    724.5167   6460.8000  a_Ne I    724.51666 nm
   724.800    2434.700    724.7173   2434.7000  
   725.000     226.990    724.9178    226.9900  
   725.200     126.390    725.1184    126.3900  
   725.400     117.770    725.3189    117.7700  
   725.600     124.050    725.5194    124.0500  
   725.800     128.290    725.7198    128.2900  
   726.000     117.290    725.9202    117.2900  
   726.200     115.970    726.1206    115.9700  
   726.400     117.430    726.3210    117.4300  
   726.600     113.230    726.5213    113.2300  
   726.800     111.010    726.7217    111.0100  
   727.000     110.210    726.9219    110.2100  
   727.200     124.930    727.1222    124.9300  
   727.400     118.050    727.3224    118.0500  
   727.600     119.610    727.5226    119.6100  
   727.800     115.510    727.7228    115.5100  
   728.000     108.390    727.9230    108.3900  
   728.200      99.995    728.1231     99.9950  
   728.400     120.150    728.3232    120.1500  
   728.600     110.150    728.5233    110.1500  
   728.800     117.410    728.7233    117.4100  
   729.000     116.090    728.9234    116.0900  
   729.200     119.710    729.1234    119.7100  
   729.400     120.070    729.3234    120.0700  
   729.600     118.230    729.5234    118.2300  
   729.800     115.170    729.7233    115.1700  
   730.000     119.670    729.9232    119.6700  
   730.200     106.190    730.1231    106.1900  
   730.400     130.190    730.3230    130.1900  
   730.600     118.350    730.5229    118.3500  
   730.800     113.850    730.7227    113.8500  
   731.000     110.190    730.9226    110.1900  
   731.200     110.730    731.1224    110.7300  
   731.400     126.410    731.3222    126.4100  
   731.600     114.170    731.5219    114.1700  
   731.800     124.610    731.7217    124.6100  
   732.000     107.290    731.9214    107.2900  
   732.200     121.190    732.1211    121.1900  
   732.400     115.990    732.3208    115.9900  
   732.600     120.870    732.5205    120.8700  
   732.800     113.610    732.7202    113.6100  
   733.000     120.890    732.9199    120.8900  
   733.200     112.070    733.1195    112.0700  
   733.400     127.450    733.3191    127.4500  
   733.600     116.070    733.5188    116.0700  
   733.800     133.750    733.7184    133.7500  
   734.000     116.610    733.9179    116.6100  
   734.200     117.810    734.1175    117.8100  
   734.400     108.750    734.3171    108.7500  
   734.600     129.550    734.5166    129.5500  
   734.800     108.910    734.7162    108.9100  
   735.000     115.210    734.9157    115.2100  
   735.200     112.170    735.1152    112.1700  
   735.400     125.850    735.3147    125.8500  
   735.600     120.470    735.5143    120.4700  
   735.800     157.030    735.7137    157.0300  
   736.000     108.150    735.9132    108.1500  
   736.200     107.930    736.1127    107.9300  
   736.400     113.350    736.3122    113.3500  
   736.600     113.410    736.5116    113.4100  
   736.800     127.110    736.7111    127.1100  
   737.000     125.850    736.9105    125.8500  
   737.200     126.430    737.1100    126.4300  
   737.400     122.090    737.3094    122.0900  
   737.600     127.150    737.5088    127.1500  
   737.800     120.710    737.7082    120.7100  
   738.000     115.530    737.9076    115.5300  
   738.200     120.870    738.1071    120.8700  
   738.400     119.890    738.3065    119.8900  
   738.600     120.370    738.5059    120.3700  
   738.800     140.350    738.7053    140.3500  
   739.000     119.990    738.9047    119.9900  
   739.200     108.610    739.1041    108.6100  
   739.400     115.830    739.3035    115.8300  
   739.600     109.830    739.5028    109.8300  
   739.800     119.030    739.7022    119.0300  
   740.000     105.810    739.9016    105.8100  
   740.200     115.750    740.1010    115.7500  
   740.400     119.990    740.3004    119.9900  
   740.600     109.010    740.4998    109.0100  
   740.800     112.930    740.6992    112.9300  
   741.000     126.950    740.8986    126.9500  
   741.200     112.830    741.0980    112.8300  
   741.400     130.190    741.2974    130.1900  
   741.600     112.050    741.4967    112.0500  
   741.800     123.010    741.6961    123.0100  
   742.000     130.710    741.8956    130.7100  
   742.200     126.490    742.0950    126.4900  
   742.400     108.010    742.2944    108.0100  
   742.600     122.190    742.4938    122.1900  
   742.800     124.890    742.6932    124.8900  
   743.000     134.670    742.8926    134.6700  
   743.200     128.950    743.0921    128.9500  
   743.400     127.150    743.2915    127.1500  
   743.600     273.650    743.4909    273.6500  
   743.800    1231.700    743.6904   1231.7000  
   744.000    1822.600    743.8898   1822.6000  a_Ne I    743.88984 nm
   744.200    1015.000    744.0893   1015.0000  
   744.400     325.330    744.2888    325.3300  
   744.600     121.230    744.4883    121.2300  
   744.800     132.370    744.6877    132.3700  
   745.000     117.990    744.8872    117.9900  
   745.200     124.490    745.0867    124.4900  
   745.400     109.450    745.2863    109.4500  
   745.600     120.510    745.4858    120.5100  
   745.800     122.370    745.6853    122.3700  
   746.000     117.610    745.8848    117.6100  
   746.200     138.310    746.0844    138.3100  
   746.400     113.730    746.2840    113.7300  
   746.600     107.370    746.4835    107.3700  
   746.800     115.230    746.6831    115.2300  
   747.000     105.470    746.8827    105.4700  
   747.200     126.730    747.0823    126.7300  
   747.400     130.950    747.2819    130.9500  
   747.600     133.530    747.4815    133.5300  
   747.800     118.410    747.6811    118.4100  
   748.000     113.390    747.8808    113.3900  
   748.200     118.390    748.0804    118.3900  
   748.400     122.430    748.2801    122.4300  
   748.600     139.670    748.4797    139.6700  
   748.800     201.670    748.6794    201.6700  
   749.000     203.670    748.8791    203.6700  
   749.200     150.330    749.0788    150.3300  
   749.400     112.970    749.2785    112.9700  
   749.600     113.090    749.4782    113.0900  
   749.800     119.790    749.6780    119.7900  
   750.000     128.810    749.8777    128.8100  
   750.200     135.490    750.0775    135.4900  
   750.400     157.190    750.2772    157.1900  
   750.600     134.090    750.4770    134.0900  
   750.800      99.735    750.6768     99.7350  
   751.000     125.510    750.8766    125.5100  
   751.200     121.310    751.0765    121.3100  
   751.400     130.510    751.2763    130.5100  
   751.600     140.270    751.4761    140.2700  
   751.800     127.390    751.6760    127.3900  
   752.000     119.130    751.8759    119.1300  
   752.200     130.510    752.0758    130.5100  
   752.400     113.130    752.2757    113.1300  
   752.600     124.390    752.4756    124.3900  
   752.800     133.610    752.6755    133.6100  
   753.000     108.190    752.8754    108.1900  
   753.200     117.590    753.0754    117.5900  
   753.400     167.730    753.2754    167.7300  
   753.600     211.410    753.4753    211.4100  
   753.800     215.290    753.6753    215.2900  
   754.000     159.330    753.8753    159.3300  
   754.200     125.310    754.0754    125.3100  
   754.400     170.210    754.2754    170.2100  
   754.600     170.070    754.4755    170.0700  
   754.800     132.310    754.6755    132.3100  
   755.000     112.770    754.8756    112.7700  
   755.200     113.150    755.0757    113.1500  
   755.400     112.150    755.2759    112.1500  
   755.600     123.910    755.4760    123.9100  
   755.800     117.230    755.6761    117.2300  
   756.000     117.050    755.8763    117.0500  
   756.200     115.090    756.0765    115.0900  
   756.400     118.050    756.2767    118.0500  
   756.600     116.430    756.4769    116.4300  
   756.800     122.310    756.6771    122.3100  
   757.000     103.570    756.8774    103.5700  
   757.200     111.170    757.0776    111.1700  
   757.400     112.490    757.2779    112.4900  
   757.600     113.490    757.4782    113.4900  
   757.800     126.450    757.6785    126.4500  
   758.000     114.850    757.8789    114.8500  
   758.200     122.050    758.0792    122.0500  
   758.400     129.050    758.2796    129.0500  
   758.600     119.050    758.4800    119.0500  
   758.800     120.630    758.6804    120.6300  
   759.000     108.510    758.8808    108.5100  
   759.200     123.170    759.0813    123.1700  
   759.400     112.150    759.2817    112.1500  
   759.600     125.210    759.4822    125.2100  
   759.800     107.370    759.6827    107.3700  
   760.000     134.030    759.8832    134.0300  
   760.200     117.050    760.0837    117.0500  
   760.400     128.430    760.2843    128.4300  
   760.600     116.030    760.4849    116.0300  
   760.800     109.550    760.6855    109.5500  
   761.000     111.090    760.8861    111.0900  
   761.200     118.950    761.0867    118.9500  
   761.400     120.870    761.2874    120.8700  
   761.600     125.830    761.4880    125.8300  
   761.800     121.550    761.6887    121.5500  
   762.000     120.970    761.8894    120.9700  
   762.200     112.790    762.0902    112.7900  
   762.400     110.770    762.2909    110.7700  
   762.600     121.370    762.4917    121.3700  
   762.800     125.230    762.6925    125.2300  
   763.000     108.970    762.8933    108.9700  
   763.200     122.450    763.0942    122.4500  
   763.400     142.650    763.2950    142.6500  
   763.600     159.630    763.4959    159.6300  
   763.800     163.570    763.6968    163.5700  
   764.000     123.670    763.8977    123.6700  
   764.200     118.290    764.0987    118.2900  
   764.400     127.970    764.2996    127.9700  
   764.600     104.370    764.5006    104.3700  
   764.800     121.930    764.7016    121.9300  
   765.000     119.870    764.9027    119.8700  
   765.200     118.650    765.1037    118.6500  
   765.400     122.410    765.3048    122.4100  
   765.600     128.250    765.5059    128.2500  
   765.800     110.830    765.7070    110.8300  
   766.000     132.330    765.9082    132.3300  
   766.200     119.850    766.1094    119.8500  
   766.400     117.390    766.3106    117.3900  
   766.600     108.290    766.5118    108.2900  
   766.800     119.250    766.7130    119.2500  
   767.000     113.530    766.9143    113.5300  
   767.200     117.070    767.1156    117.0700  
   767.400     119.970    767.3169    119.9700  
   767.600     110.810    767.5182    110.8100  
   767.800     111.210    767.7196    111.2100  
   768.000     114.870    767.9210    114.8700  
   768.200     113.930    768.1224    113.9300  
   768.400     117.510    768.3238    117.5100  
   768.600     121.570    768.5253    121.5700  
   768.800     109.290    768.7268    109.2900  
   769.000     124.370    768.9283    124.3700  
   769.200     119.010    769.1298    119.0100  
   769.400     120.490    769.3314    120.4900  
   769.600     115.250    769.5330    115.2500  
   769.800     107.270    769.7346    107.2700  
   770.000     108.830    769.9363    108.8300  
   770.200     123.610    770.1379    123.6100  
   770.400     113.810    770.3396    113.8100  
   770.600     114.450    770.5413    114.4500  
   770.800     105.890    770.7431    105.8900  
   771.000     121.470    770.9449    121.4700  
   771.200     126.470    771.1467    126.4700  
   771.400     120.030    771.3485    120.0300  
   771.600     119.290    771.5503    119.2900  
   771.800     113.510    771.7522    113.5100  
   772.000     124.550    771.9541    124.5500  
   772.200     125.370    772.1561    125.3700  
   772.400     139.850    772.3580    139.8500  
   772.600     129.710    772.5600    129.7100  
   772.800     118.590    772.7621    118.5900  
   773.000     114.870    772.9641    114.8700  
   773.200     143.810    773.1662    143.8100  
   773.400     118.330    773.3683    118.3300  
   773.600     116.750    773.5704    116.7500  
   773.800     126.210    773.7726    126.2100  
   774.000     113.110    773.9748    113.1100  
   774.200     115.770    774.1770    115.7700  
   774.400     119.910    774.3793    119.9100  
   774.600     128.530    774.5815    128.5300  
   774.800     121.350    774.7838    121.3500  
   775.000     122.570    774.9862    122.5700  
   775.200     128.590    775.1885    128.5900  
   775.400     132.210    775.3909    132.2100  
   775.600     114.230    775.5934    114.2300  
   775.800     119.110    775.7958    119.1100  
   776.000     120.710    775.9983    120.7100  
   776.200     121.270    776.2008    121.2700  
   776.400     116.310    776.4034    116.3100  
   776.600     122.650    776.6060    122.6500  
   776.800     124.030    776.8086    124.0300  
   777.000     408.990    777.0112    408.9900  
   777.200     905.950    777.2139    905.9500  
   777.400    1342.600    777.4166   1342.6000  a_O  I    777.41660 nm
   777.600    1176.700    777.6174   1176.7000  
   777.800     678.050    777.8181    678.0500  
   778.000     225.510    778.0189    225.5100  
   778.200     120.450    778.2196    120.4500  
   778.400     111.570    778.4204    111.5700  
   778.600     124.590    778.6212    124.5900  
   778.800     118.370    778.8219    118.3700  
   779.000     123.990    779.0227    123.9900  
   779.200     108.690    779.2234    108.6900  
   779.400     126.570    779.4242    126.5700  
   779.600     116.790    779.6249    116.7900  
   779.800     117.250    779.8257    117.2500  
   780.000     101.390    780.0265    101.3900  
   780.200     111.010    780.2272    111.0100  
   780.400     111.470    780.4280    111.4700  
   780.600     118.990    780.6287    118.9900  
   780.800     123.530    780.8295    123.5300  
   781.000     109.570    781.0303    109.5700  
   781.200     113.130    781.2310    113.1300  
   781.400     115.290    781.4318    115.2900  
   781.600     114.130    781.6325    114.1300  
   781.800     117.170    781.8333    117.1700  
   782.000     111.110    782.0341    111.1100  
   782.200     125.510    782.2348    125.5100  
   782.400     104.750    782.4356    104.7500  
   782.600     114.910    782.6363    114.9100  
   782.800     110.850    782.8371    110.8500  
   783.000     129.550    783.0379    129.5500  
   783.200     114.490    783.2386    114.4900  
   783.400      99.675    783.4394     99.6750  
   783.600     119.050    783.6401    119.0500  
   783.800     108.990    783.8409    108.9900  
   784.000     123.790    784.0416    123.7900  
   784.200     117.590    784.2424    117.5900  
   784.400     111.290    784.4432    111.2900  
   784.600     131.670    784.6439    131.6700  
   784.800     105.670    784.8447    105.6700  
   785.000     113.090    785.0454    113.0900  
   785.200     119.190    785.2462    119.1900  
   785.400     122.190    785.4470    122.1900  
   785.600     121.950    785.6477    121.9500  
   785.800     138.070    785.8485    138.0700  
   786.000     118.570    786.0492    118.5700  
   786.200     112.290    786.2500    112.2900  
   786.400     119.930    786.4508    119.9300  
   786.600     120.930    786.6515    120.9300  
   786.800     108.470    786.8523    108.4700  
   787.000     128.050    787.0530    128.0500  
   787.200     110.870    787.2538    110.8700  
   787.400     118.190    787.4546    118.1900  
   787.600     113.670    787.6553    113.6700  
   787.800     111.030    787.8561    111.0300  
   788.000     114.750    788.0568    114.7500  
   788.200     117.930    788.2576    117.9300  
   788.400     110.850    788.4583    110.8500  
   788.600     123.930    788.6591    123.9300  
   788.800     122.030    788.8599    122.0300  
   789.000     121.170    789.0606    121.1700  
   789.200     115.070    789.2614    115.0700  
   789.400     113.270    789.4621    113.2700  
   789.600     129.630    789.6629    129.6300  
   789.800     114.090    789.8637    114.0900  
   790.000     119.070    790.0644    119.0700  
   790.200     118.770    790.2652    118.7700  
   790.400     128.330    790.4659    128.3300  
   790.600     130.870    790.6667    130.8700  
   790.800     114.310    790.8675    114.3100  
   791.000     112.950    791.0682    112.9500  
   791.200     106.390    791.2690    106.3900  
   791.400     134.830    791.4697    134.8300  
   791.600     122.210    791.6705    122.2100  
   791.800     111.890    791.8713    111.8900  
   792.000     116.230    792.0720    116.2300  
   792.200     112.610    792.2728    112.6100  
   792.400     119.670    792.4735    119.6700  
   792.600     126.650    792.6743    126.6500  
   792.800     112.410    792.8750    112.4100  
   793.000     119.370    793.0758    119.3700  
   793.200     127.330    793.2766    127.3300  
   793.400     117.450    793.4773    117.4500  
   793.600     122.650    793.6781    122.6500  
   793.800     124.750    793.8788    124.7500  
   794.000     116.690    794.0796    116.6900  
   794.200     127.510    794.2804    127.5100  
   794.400     103.090    794.4811    103.0900  
   794.600     117.970    794.6819    117.9700  
   794.800     133.710    794.8826    133.7100  
   795.000     138.670    795.0834    138.6700  
   795.200     131.910    795.2842    131.9100  
   795.400     120.230    795.4849    120.2300  
   795.600     109.910    795.6857    109.9100  
   795.800     117.610    795.8864    117.6100  
   796.000     122.210    796.0872    122.2100  
   796.200     131.570    796.2879    131.5700  
   796.400     125.890    796.4887    125.8900  
   796.600     119.030    796.6895    119.0300  
   796.800     119.630    796.8902    119.6300  
   797.000     116.990    797.0910    116.9900  
   797.200     112.190    797.2917    112.1900  
   797.400     120.950    797.4925    120.9500  
   797.600      93.475    797.6933     93.4750  
   797.800     124.210    797.8940    124.2100  
   798.000     129.430    798.0948    129.4300  
   798.200     110.750    798.2955    110.7500  
   798.400     118.470    798.4963    118.4700  
   798.600     121.510    798.6971    121.5100  
   798.800     120.590    798.8978    120.5900  
   799.000     121.870    799.0986    121.8700  
   799.200     134.670    799.2993    134.6700  
   799.400     115.830    799.5001    115.8300  
   799.600     126.230    799.7009    126.2300  
   799.800     110.130    799.9016    110.1300  
   800.000     116.050    800.1024    116.0500  
