#====================================================
#Wavelength   Intensity CWavelength  CIntensity  Note
#  [nm]         rel         [nm]       rel.      txt 
#====================================================
# CN I: Tv = 7380±320 K, r =1,00
# CN I: Tv = 7796±736 K, r =0,99
# CN I: Tv = 7560±631 K, r =1,00
#===================================================
   375.990    1079.661    370.5150    134.9576  
   376.020    1061.962    370.5608    132.7453  
   376.050    1079.517    370.6067    134.9396  
   376.080    1074.809    370.6525    134.3511  
   376.110     915.937    370.6983    114.4921  
   376.140     972.717    370.7442    121.5896  
   376.170    1020.617    370.7900    127.5771  
   376.200     968.707    370.8358    121.0884  
   376.230     905.229    370.8817    113.1536  
   376.260     942.005    370.9275    117.7507  
   376.290     962.119    370.9733    120.2649  
   376.320     909.042    371.0192    113.6303  
   376.350     914.494    371.0650    114.3117  
   376.380     905.190    371.1109    113.1488  
   376.410     939.607    371.1567    117.4509  
   376.440    1015.064    371.2025    126.8831  
   376.470     945.241    371.2484    118.1552  
   376.500     967.890    371.2942    120.9862  
   376.530     956.970    371.3400    119.6212  
   376.560     809.027    371.3859    101.1284  
   376.590     868.143    371.4317    108.5179  
   376.620     841.371    371.4775    105.1713  
   376.650     905.653    371.5233    113.2066  
   376.680    1085.086    371.5692    135.6358  
   376.710     967.314    371.6150    120.9142  
   376.740     902.169    371.6608    112.7711  
   376.770     957.477    371.7067    119.6847  
   376.800     900.421    371.7525    112.5526  
   376.830     860.760    371.7983    107.5950  
   376.860    1058.646    371.8442    132.3307  
   376.890    1079.947    371.8900    134.9934  
   376.920     948.287    371.9358    118.5359  
   376.950     923.909    371.9817    115.4887  
   376.980     878.823    372.0275    109.8528  
   377.010     927.886    372.0733    115.9858  
   377.040    1091.063    372.1192    136.3828  
   377.070    1138.012    372.1650    142.2515  
   377.100     972.426    372.2108    121.5532  
   377.130     931.924    372.2567    116.4904  
   377.160     966.013    372.3025    120.7516  
   377.190    1054.084    372.3484    131.7605  
   377.220    1080.782    372.3942    135.0977  
   377.250    1091.402    372.4400    136.4253  
   377.280    1016.470    372.4859    127.0588  
   377.310     907.388    372.5317    113.4234  
   377.340     947.235    372.5775    118.4044  
   377.370     979.990    372.6233    122.4988  
   377.400     990.279    372.6692    123.7848  
   377.430     958.639    372.7150    119.8299  
   377.460     996.029    372.7608    124.5037  
   377.490     979.592    372.8067    122.4490  
   377.520     929.272    372.8525    116.1590  
   377.550     924.704    372.8983    115.5880  
   377.580     901.217    372.9442    112.6522  
   377.610     866.620    372.9900    108.3275  
   377.640     992.211    373.0358    124.0264  
   377.670    1114.805    373.0817    139.3507  
   377.700     855.413    373.1275    106.9266  
   377.730     808.689    373.1733    101.0861  
   377.760     944.055    373.2192    118.0069  
   377.790     985.541    373.2650    123.1926  
   377.820     979.324    373.3108    122.4154  
   377.850    1051.521    373.3567    131.4401  
   377.880     878.773    373.4025    109.8466  
   377.910     880.490    373.4484    110.0612  
   377.940     986.777    373.4942    123.3471  
   377.970     900.791    373.5400    112.5989  
   378.000     889.682    373.5859    111.2103  
   378.030     967.044    373.6317    120.8805  
   378.060     913.600    373.6775    114.2000  
   378.090    1016.928    373.7233    127.1160  
   378.120     980.995    373.7692    122.6244  
   378.150     868.233    373.8150    108.5292  
   378.180     867.797    373.8608    108.4746  
   378.210    1014.235    373.9067    126.7794  
   378.240    1069.171    373.9525    133.6463  
   378.270     989.356    373.9983    123.6695  
   378.300     976.191    374.0442    122.0238  
   378.330     858.547    374.0900    107.3183  
   378.360     866.897    374.1358    108.3621  
   378.390     926.995    374.1817    115.8744  
   378.420    1148.304    374.2275    143.5380  
   378.450    1077.027    374.2733    134.6283  
   378.480     842.106    374.3192    105.2633  
   378.510     843.955    374.3650    105.4944  
   378.540     838.229    374.4108    104.7786  
   378.570    1004.600    374.4567    125.5750  
   378.600    1216.554    374.5025    152.0693  
   378.630    1000.413    374.5484    125.0517  
   378.660     849.906    374.5942    106.2382  
   378.690     739.259    374.6400     92.4074  
   378.720     927.265    374.6859    115.9082  
   378.750    1151.951    374.7317    143.9939  
   378.780    1214.858    374.7775    151.8572  
   378.810    1016.544    374.8233    127.0679  
   378.840     857.496    374.8692    107.1870  
   378.870     876.234    374.9150    109.5293  
   378.900    1006.080    374.9608    125.7599  
   378.930    1219.432    375.0067    152.4290  
   378.960    1197.339    375.0525    149.6674  
   378.990     903.694    375.0983    112.9617  
   379.020     879.682    375.1442    109.9603  
   379.050    1009.209    375.1900    126.1511  
   379.080     969.297    375.2358    121.1621  
   379.110    1109.509    375.2817    138.6886  
   379.140    1176.641    375.3275    147.0801  
   379.170    1047.964    375.3733    130.9955  
   379.200    1025.058    375.4192    128.1322  
   379.230     897.464    375.4650    112.1830  
   379.260    1058.812    375.5108    132.3515  
   379.290    1084.362    375.5567    135.5452  
   379.320    1195.500    375.6025    149.4375  
   379.350    1026.086    375.6483    128.2607  
   379.380     856.699    375.6942    107.0874  
   379.410     962.871    375.7400    120.3588  
   379.440    1016.616    375.7859    127.0770  
   379.470    1061.134    375.8317    132.6418  
   379.500    1138.566    375.8775    142.3207  
   379.530    1054.214    375.9233    131.7768  
   379.560     983.685    375.9692    122.9606  
   379.590    1056.601    376.0150    132.0751  
   379.620    1060.535    376.0608    132.5669  
   379.650    1141.686    376.1067    142.7107  
   379.680    1174.935    376.1525    146.8669  
   379.710     932.355    376.1983    116.5444  
   379.740    1032.938    376.2442    129.1173  
   379.770    1180.899    376.2900    147.6123  
   379.800     932.508    376.3358    116.5635  
   379.830    1022.481    376.3817    127.8102  
   379.860    1216.414    376.4275    152.0518  
   379.890    1048.954    376.4733    131.1192  
   379.920    1242.575    376.5192    155.3219  
   379.950     966.837    376.5650    120.8546  
   379.980     963.661    376.6108    120.4576  
   380.010    1153.895    376.6567    144.2369  
   380.040    1215.628    376.7025    151.9535  
   380.070    1250.264    376.7483    156.2830  
   380.100    1093.607    376.7941    136.7009  
   380.130     885.862    376.8400    110.7327  
   380.160     930.313    376.8859    116.2891  
   380.190    1341.524    376.9317    167.6905  
   380.220    1458.154    376.9775    182.2692  
   380.250    1011.665    377.0233    126.4581  
   380.280     839.528    377.0692    104.9410  
   380.310     975.310    377.1150    121.9138  
   380.340    1220.412    377.1608    152.5516  
   380.370    1395.722    377.2067    174.4653  
   380.400    1156.916    377.2525    144.6145  
   380.430    1007.495    377.2983    125.9369  
   380.460     996.280    377.3442    124.5350  
   380.490    1038.460    377.3900    129.8075  
   380.520    1368.051    377.4358    171.0063  
   380.550    1422.352    377.4817    177.7940  
   380.580    1050.546    377.5275    131.3182  
   380.610    1106.613    377.5733    138.3266  
   380.640     993.068    377.6192    124.1335  
   380.670    1173.133    377.6650    146.6416  
   380.700    1421.541    377.7108    177.6926  
   380.730    1254.264    377.7567    156.7830  
   380.760    1040.358    377.8025    130.0447  
   380.790    1029.792    377.8483    128.7240  
   380.820    1209.213    377.8941    151.1517  
   380.850    1311.952    377.9400    163.9940  
   380.880    1236.103    377.9859    154.5128  
   380.910    1105.989    378.0317    138.2486  
   380.940    1016.074    378.0775    127.0093  
   380.970    1138.476    378.1233    142.3095  
   381.000    1277.621    378.1692    159.7026  
   381.030    1335.814    378.2150    166.9768  
   381.060    1327.557    378.2608    165.9447  
   381.090    1020.585    378.3067    127.5731  
   381.120    1214.974    378.3525    151.8717  
   381.150    1254.143    378.3983    156.7679  
   381.180    1220.706    378.4442    152.5883  
   381.210    1394.875    378.4900    174.3594  
   381.240    1073.064    378.5358    134.1330  
   381.270    1393.170    378.5817    174.1462  
   381.300    1112.095    378.6275    139.0119  
   381.330    1069.162    378.6733    133.6453  
   381.360    1465.065    378.7192    183.1332  
   381.390    1519.447    378.7650    189.9308  
   381.420    1334.705    378.8108    166.8381  
   381.450    1078.777    378.8567    134.8471  
   381.480    1091.947    378.9025    136.4934  
   381.510    1496.218    378.9483    187.0272  
   381.540    1617.033    378.9941    202.1291  
   381.570    1255.187    379.0400    156.8984  
   381.600    1069.507    379.0858    133.6884  
   381.630    1248.598    379.1317    156.0748  
   381.660    1595.526    379.1775    199.4407  
   381.690    1724.653    379.2233    215.5817  
   381.720    1309.261    379.2692    163.6577  
   381.750    1081.095    379.3150    135.1369  
   381.780    1181.675    379.3608    147.7093  
   381.810    1298.216    379.4067    162.2770  
   381.840    1698.553    379.4525    212.3192  
   381.870    1306.485    379.4983    163.3106  
   381.900    1164.869    379.5442    145.6086  
   381.930    1117.375    379.5900    139.6718  
   381.960    1391.463    379.6358    173.9328  
   381.990    1720.779    379.6817    215.0974  
   382.020    1401.898    379.7275    175.2372  
   382.050    1163.211    379.7733    145.4014  
   382.080    1327.141    379.8192    165.8926  
   382.110    1838.578    379.8650    229.8223  
   382.140    1961.282    379.9108    245.1603  
   382.170    1479.948    379.9567    184.9935  
   382.200    1125.766    380.0025    140.7208  
   382.230    1394.937    380.0483    174.3671  
   382.260    1617.618    380.0941    202.2022  
   382.290    1425.958    380.1400    178.2447  
   382.320    1448.506    380.1858    181.0633  
   382.350    1469.369    380.2316    183.6711  
   382.380    1828.896    380.2775    228.6120  
   382.410    1296.814    380.3233    162.1017  
   382.440    1493.758    380.3692    186.7198  
   382.470    1759.857    380.4150    219.9822  
   382.500    1543.765    380.4608    192.9706  
   382.530    1504.596    380.5067    188.0745  
   382.560    1317.541    380.5525    164.6926  
   382.590    1657.109    380.5983    207.1386  
   382.620    1732.024    380.6442    216.5030  
   382.650    1764.721    380.6900    220.5901  
   382.680    1549.684    380.7358    193.7106  
   382.710    1409.794    380.7817    176.2242  
   382.740    1765.933    380.8275    220.7416  
   382.770    1717.009    380.8733    214.6261  
   382.800    1441.742    380.9192    180.2178  
   382.830    1362.661    380.9650    170.3327  
   382.860    1518.671    381.0108    189.8338  
   382.890    1860.653    381.0567    232.5816  
   382.920    1814.275    381.1025    226.7844  
   382.950    1326.850    381.1483    165.8562  
   382.980    1332.707    381.1941    166.5884  
   383.010    1810.767    381.2400    226.3459  
   383.040    2080.120    381.2858    260.0150  
   383.070    1472.896    381.3316    184.1121  
   383.100    1330.945    381.3775    166.3681  
   383.130    1635.541    381.4233    204.4426  
   383.160    1815.058    381.4692    226.8822  
   383.190    1849.149    381.5150    231.1436  
   383.220    1407.354    381.5608    175.9193  
   383.250    1742.525    381.6067    217.8157  
   383.280    1750.978    381.6525    218.8722  
   383.310    1863.261    381.6983    232.9077  
   383.340    1838.249    381.7442    229.7811  
   383.370    1804.970    381.7900    225.6213  
   383.400    1580.291    381.8358    197.5364  
   383.430    1715.896    381.8817    214.4870  
   383.460    2021.405    381.9275    252.6756  
   383.490    2002.879    381.9733    250.3598  
   383.520    1772.108    382.0192    221.5135  
   383.550    1616.629    382.0650    202.0786  
   383.580    1836.912    382.1108    229.6140  
   383.610    2088.532    382.1567    261.0665  
   383.640    1827.701    382.2025    228.4626  
   383.670    1536.245    382.2483    192.0306  
   383.700    1748.782    382.2941    218.5977  
   383.730    2230.214    382.3400    278.7767  
   383.760    1955.772    382.3858    244.4715  
   383.790    1473.904    382.4316    184.2380  
   383.820    1786.330    382.4775    223.2913  
   383.850    2227.071    382.5233    278.3839  
   383.880    2149.176    382.5692    268.6470  
   383.910    1874.461    382.6150    234.3076  
   383.940    1844.656    382.6608    230.5820  
   383.970    1946.245    382.7067    243.2806  
   384.000    2249.565    382.7525    281.1956  
   384.030    1866.481    382.7983    233.3101  
   384.060    1988.164    382.8442    248.5204  
   384.090    2052.830    382.8900    256.6037  
   384.120    2313.520    382.9358    289.1899  
   384.150    2252.283    382.9817    281.5354  
   384.180    2180.794    383.0275    272.5992  
   384.210    2055.519    383.0733    256.9398  
   384.240    2212.228    383.1192    276.5285  
   384.270    2386.455    383.1650    298.3069  
   384.300    2096.233    383.2108    262.0292  
   384.330    1940.425    383.2567    242.5532  
   384.360    2253.264    383.3025    281.6580  
   384.390    2508.089    383.3483    313.5111  
   384.420    2123.869    383.3941    265.4836  
   384.450    2020.602    383.4400    252.5753  
   384.480    2303.303    383.4858    287.9129  
   384.510    2668.688    383.5316    333.5859  
   384.540    2169.290    383.5775    271.1613  
   384.570    2012.515    383.6233    251.5644  
   384.600    2455.697    383.6691    306.9621  
   384.630    2576.912    383.7150    322.1140  
   384.660    2296.442    383.7608    287.0553  
   384.690    2251.175    383.8067    281.3969  
   384.720    2224.639    383.8525    278.0799  
   384.750    2658.231    383.8983    332.2788  
   384.780    2576.431    383.9442    322.0538  
   384.810    2284.761    383.9900    285.5951  
   384.840    2286.327    384.0358    285.7908  
   384.870    2759.414    384.0817    344.9267  
   384.900    2651.909    384.1275    331.4886  
   384.930    2352.785    384.1733    294.0982  
   384.960    2685.677    384.2192    335.7096  
   384.990    2954.251    384.2650    369.2814  
   385.020    2749.434    384.3108    343.6792  
   385.050    2777.170    384.3567    347.1462  
   385.080    3157.233    384.4025    394.6541  
   385.110    3354.633    384.4483    419.3291  
   385.140    3347.298    384.4941    418.4123  
   385.170    3291.145    384.5400    411.3931  
   385.200    2883.532    384.5858    360.4415  
   385.230    2953.722    384.6316    369.2153  
   385.260    2465.631    384.6775    308.2039  
   385.290    2042.551    384.7233    255.3189  
   385.320    2636.601    384.7691    329.5751  
   385.350    2656.688    384.8150    332.0860  
   385.380    2321.415    384.8608    290.1769  
   385.410    2673.827    384.9067    334.2284  
   385.440    2975.426    384.9525    371.9283  
   385.470    2828.473    384.9983    353.5592  
   385.500    2988.958    385.0442    373.6198  
   385.530    3439.514    385.0900    429.9393  m_CN I 385.09000 nm
   385.560    3378.892    385.1463    422.3615  
   385.590    2624.563    385.2016    328.0704  
   385.620    2268.875    385.2558    283.6094  
   385.650    2524.272    385.3091    315.5340  
   385.680    2458.108    385.3613    307.2635  
   385.710    2296.220    385.4126    287.0275  
   385.740    2571.578    385.4629    321.4473  
   385.770    2594.070    385.5123    324.2588  
   385.800    2377.230    385.5607    297.1538  
   385.830    2349.944    385.6083    293.7430  
   385.860    2597.498    385.6550    324.6872  
   385.890    2687.685    385.7008    335.9607  
   385.920    2347.635    385.7458    293.4543  
   385.950    2783.553    385.7899    347.9441  
   385.980    2770.862    385.8333    346.3578  
   386.010    2492.047    385.8758    311.5059  
   386.040    2692.217    385.9176    336.5271  
   386.070    3192.666    385.9586    399.0832  
   386.100    2980.568    385.9989    372.5710  
   386.130    2766.336    386.0385    345.7920  
   386.160    3160.104    386.0774    395.0129  
   386.190    3191.629    386.1156    398.9536  
   386.220    3644.535    386.1531    455.5669  
   386.250    4093.899    386.1900    511.7373  m_CN I 386.19000 nm
   386.280    3227.468    386.2263    403.4335  
   386.310    2282.356    386.2619    285.2945  
   386.340    2165.580    386.2970    270.6975  
   386.370    2143.582    386.3315    267.9478  
   386.400    2027.098    386.3654    253.3873  
   386.430    2179.984    386.3988    272.4980  
   386.460    2262.382    386.4317    282.7978  
   386.490    2103.228    386.4641    262.9035  
   386.520    2264.424    386.4960    283.0530  
   386.550    2296.835    386.5275    287.1044  
   386.580    2147.120    386.5585    268.3900  
   386.610    2319.436    386.5891    289.9294  
   386.640    2261.143    386.6193    282.6429  
   386.670    2236.477    386.6491    279.5596  
   386.700    2460.117    386.6785    307.5147  
   386.730    2192.800    386.7076    274.0999  
   386.760    2231.210    386.7363    278.9012  
   386.790    2477.146    386.7647    309.6432  
   386.820    2306.951    386.7929    288.3689  
   386.850    2444.200    386.8207    305.5250  
   386.880    2547.134    386.8484    318.3918  
   386.910    2404.126    386.8757    300.5157  
   386.940    2416.206    386.9028    302.0257  
   386.970    2543.450    386.9298    317.9312  
   387.000    2648.567    386.9565    331.0709  
   387.030    2833.168    386.9831    354.1461  
   387.060    2896.142    387.0095    362.0178  
   387.090    2989.519    387.0358    373.6899  
   387.120    3227.740    387.0620    403.4676  
   387.150    3529.155    387.0880    441.1444  
   387.180    4169.841    387.1141    521.2302  
   387.210    4816.854    387.1400    602.1067  m_CN I 387.14000 nm
   387.240    4473.095    387.1659    559.1369  
   387.270    2706.180    387.1918    338.2725  
   387.300    1656.603    387.2177    207.0753  
   387.330    1775.995    387.2436    221.9993  
   387.360    1608.696    387.2695    201.0869  
   387.390    1642.860    387.2955    205.3575  
   387.420    1581.656    387.3215    197.7070  
   387.450    1666.929    387.3477    208.3661  
   387.480    1623.819    387.3739    202.9773  
   387.510    1675.605    387.4003    209.4506  
   387.540    1644.321    387.4268    205.5401  
   387.570    1712.105    387.4535    214.0131  
   387.600    1634.753    387.4803    204.3441  
   387.630    1737.933    387.5074    217.2416  
   387.660    1693.894    387.5347    211.7368  
   387.690    1747.029    387.5622    218.3786  
   387.720    1697.924    387.5899    212.2405  
   387.750    1767.063    387.6179    220.8829  
   387.780    1870.771    387.6462    233.8464  
   387.810    1883.239    387.6749    235.4049  
   387.840    1978.889    387.7038    247.3611  
   387.870    2027.469    387.7331    253.4336  
   387.900    2029.655    387.7627    253.7069  
   387.930    2219.529    387.7928    277.4412  
   387.960    2316.966    387.8232    289.6208  
   387.990    2209.219    387.8541    276.1523  
   388.020    2251.098    387.8853    281.3872  
   388.050    2449.621    387.9171    306.2026  
   388.080    2506.662    387.9493    313.3327  
   388.110    2538.008    387.9820    317.2510  
   388.140    2644.977    388.0152    330.6221  
   388.170    2788.696    388.0489    348.5870  
   388.200    3002.327    388.0832    375.2909  
   388.230    3180.761    388.1180    397.5951  
   388.260    3403.586    388.1535    425.4483  
   388.290    3716.649    388.1895    464.5811  
   388.320    4135.951    388.2261    516.9938  
   388.350    4694.753    388.2634    586.8441  
   388.380    5829.143    388.3014    728.6428  
   388.410    6908.849    388.3400    863.6061  m_CN I 388.34000 nm
   388.440    6196.608    388.3700    774.5760  
   388.470    3362.268    388.4000    420.2835  
   388.500    1534.774    388.4300    191.8467  
   388.530    1373.745    388.4600    171.7181  
   388.560    1301.356    388.4900    162.6695  
   388.590    1240.113    388.5200    155.0141  
   388.620    1138.647    388.5500    142.3309  
   388.650     960.963    388.5800    120.1204  
   388.680    1107.280    388.6100    138.4100  
   388.710    1330.677    388.6400    166.3346  
   388.740    1374.467    388.6700    171.8084  
   388.770    1275.968    388.7000    159.4960  
   388.800    1233.826    388.7300    154.2283  
   388.830    1215.458    388.7600    151.9323  
   388.860    1206.175    388.7900    150.7719  
   388.890    1140.895    388.8200    142.6119  
   388.920    1213.781    388.8500    151.7226  
   388.950    1218.905    388.8800    152.3631  
   388.980    1195.671    388.9100    149.4589  
   389.010    1222.455    388.9400    152.8069  
   389.040    1121.843    388.9700    140.2304  
   389.070    1113.496    389.0000    139.1870  
   389.100    1140.608    389.0300    142.5760  
   389.130    1129.860    389.0600    141.2325  
   389.160    1155.306    389.0900    144.4132  
   389.190    1160.225    389.1200    145.0281  
   389.220    1145.850    389.1500    143.2312  
   389.250    1136.544    389.1800    142.0680  
   389.280    1126.717    389.2100    140.8396  
   389.310    1153.514    389.2400    144.1892  
   389.340    1162.365    389.2700    145.2956  
   389.370    1118.713    389.3000    139.8392  
   389.400    1133.535    389.3300    141.6919  
   389.430    1127.873    389.3600    140.9842  
   389.460    1154.445    389.3900    144.3056  
   389.490    1151.193    389.4200    143.8991  
   389.520    1176.539    389.4500    147.0674  
   389.550    1144.722    389.4800    143.0902  
   389.580    1122.653    389.5100    140.3316  
   389.610    1135.532    389.5400    141.9415  
   389.640    1185.403    389.5700    148.1754  
   389.670    1159.122    389.6000    144.8903  
   389.700    1166.772    389.6300    145.8465  
   389.730    1166.303    389.6600    145.7879  
   389.760    1095.748    389.6900    136.9685  
   389.790    1092.812    389.7200    136.6014  
   389.820    1120.274    389.7500    140.0342  
   389.850    1125.567    389.7800    140.6958  
   389.880    1137.573    389.8100    142.1966  
   389.910    1126.828    389.8400    140.8535  
   389.940    1141.006    389.8700    142.6258  
   389.970    1110.566    389.9000    138.8208  
   390.000    1085.365    389.9300    135.6706  
   390.030    1141.661    389.9600    142.7077  
   390.060    1179.743    389.9900    147.4679  
   390.090    1171.636    390.0200    146.4545  
   390.120    1136.326    390.0500    142.0407  
   390.150    1085.538    390.0800    135.6923  
   390.180    1148.276    390.1100    143.5344  
   390.210    1168.101    390.1400    146.0127  
   390.240    1139.940    390.1700    142.4924  
   390.270    1120.733    390.2000    140.0916  
   390.300    1167.269    390.2300    145.9086  
   390.330    1151.012    390.2600    143.8765  
   390.360    1218.872    390.2900    152.3589  
   390.390    1167.992    390.3200    145.9990  
   390.420    1175.224    390.3500    146.9030  
   390.450    1176.882    390.3800    147.1103  
   390.480    1151.727    390.4100    143.9659  
   390.510    1155.024    390.4400    144.3780  
   390.540    1157.000    390.4700    144.6250  
   390.570    1131.715    390.5000    141.4644  
   390.600    1160.216    390.5299    145.0269  
   390.630    1185.709    390.5600    148.2136  
   390.660    1204.458    390.5900    150.5573  
   390.690    1183.629    390.6200    147.9537  
   390.720    1174.628    390.6500    146.8285  
   390.750    1197.166    390.6800    149.6458  
   390.780    1216.733    390.7100    152.0917  
   390.810    1203.245    390.7400    150.4056  
   390.840    1172.611    390.7700    146.5764  
   390.870    1198.587    390.8000    149.8233  
   390.900    1237.186    390.8300    154.6483  
   390.930    1272.625    390.8600    159.0781  
   390.960    1275.610    390.8900    159.4512  
   390.990    1248.484    390.9200    156.0605  
   391.020    1332.565    390.9500    166.5706  
   391.050    1300.159    390.9800    162.5199  
   391.080    1365.624    391.0100    170.7030  
   391.110    1335.991    391.0400    166.9989  
   391.140    1334.069    391.0700    166.7587  
   391.170    1392.297    391.1000    174.0371  
   391.200    1387.261    391.1299    173.4076  
   391.230    1511.234    391.1599    188.9043  
   391.260    1459.818    391.1899    182.4772  
   391.290    1463.457    391.2199    182.9321  
   391.320    1534.706    391.2499    191.8383  
   391.350    1586.492    391.2799    198.3115  
   391.380    1563.363    391.3100    195.4204  
   391.410    1578.064    391.3400    197.2580  
   391.440    1625.029    391.3700    203.1286  
   391.470    1641.883    391.4000    205.2354  
   391.500    1611.595    391.4300    201.4494  
   391.530    1596.858    391.4600    199.6072  
   391.560    1592.826    391.4900    199.1032  
   391.590    1550.606    391.5200    193.8258  
   391.620    1520.402    391.5500    190.0502  
   391.650    1502.897    391.5800    187.8621  
   391.680    1553.392    391.6100    194.1740  
   391.710    1642.586    391.6400    205.3233  
   391.740    1632.786    391.6700    204.0983  
   391.770    1650.028    391.7000    206.2535  
   391.800    1685.616    391.7299    210.7020  
   391.830    1777.168    391.7599    222.1461  
   391.860    1781.434    391.7899    222.6792  
   391.890    1862.074    391.8199    232.7592  
   391.920    2015.016    391.8499    251.8770  
   391.950    2081.632    391.8799    260.2040  
   391.980    2165.388    391.9099    270.6735  
   392.010    2220.640    391.9399    277.5800  
   392.040    2278.407    391.9699    284.8009  
   392.070    2283.100    391.9999    285.3875  
   392.100    2275.784    392.0299    284.4730  
   392.130    2181.099    392.0600    272.6374  
   392.160    2091.533    392.0900    261.4416  
   392.190    2023.847    392.1200    252.9809  
   392.220    1936.139    392.1500    242.0174  
   392.250    1852.049    392.1800    231.5061  
   392.280    1784.290    392.2100    223.0362  
   392.310    1711.885    392.2400    213.9856  
   392.340    1665.000    392.2700    208.1250  
   392.370    1656.948    392.3000    207.1184  
   392.400    1638.890    392.3299    204.8612  
   392.430    1622.481    392.3599    202.8101  
   392.460    1581.612    392.3899    197.7015  
   392.490    1530.221    392.4199    191.2776  
   392.520    1518.121    392.4499    189.7651  
   392.550    1476.303    392.4799    184.5378  
   392.580    1518.409    392.5099    189.8011  
   392.610    1454.894    392.5399    181.8618  
   392.640    1526.965    392.5699    190.8706  
   392.670    1493.384    392.5999    186.6729  
   392.700    1486.472    392.6299    185.8089  
   392.730    1463.920    392.6599    182.9900  
   392.760    1459.312    392.6899    182.4139  
   392.790    1458.195    392.7199    182.2744  
   392.820    1464.129    392.7499    183.0161  
   392.850    1419.422    392.7799    177.4277  
   392.880    1473.655    392.8100    184.2069  
   392.910    1502.100    392.8400    187.7626  
   392.940    1432.127    392.8700    179.0159  
   392.970    1431.386    392.9000    178.9233  
   393.000    1460.865    392.9299    182.6081  
   393.030    1443.650    392.9599    180.4563  
   393.060    1437.588    392.9899    179.6985  
   393.090    1453.597    393.0199    181.6996  
   393.120    1462.656    393.0499    182.8320  
   393.150    1492.528    393.0799    186.5660  
   393.180    1518.475    393.1099    189.8094  
   393.210    1482.426    393.1399    185.3032  
   393.240    1548.361    393.1699    193.5451  
   393.270    1594.651    393.1999    199.3313  
   393.300    1583.973    393.2299    197.9967  
   393.330    1619.649    393.2599    202.4561  
   393.360    1730.085    393.2899    216.2606  
   393.390    1836.523    393.3199    229.5654  
   393.420    2245.322    393.3499    280.6653  
   393.450    5315.269    393.3799    664.4086  
   393.480    7308.619    393.4099    913.5773  
   393.510    8658.389    393.4399   1082.2986  
   393.540    3873.657    393.4699    484.2072  
   393.570    2118.655    393.4999    264.8318  
   393.600    1832.542    393.5299    229.0678  
   393.630    1709.684    393.5599    213.7104  
   393.660    1712.090    393.5899    214.0113  
   393.690    1724.171    393.6199    215.5214  
   393.720    1732.581    393.6499    216.5727  
   393.750    1733.720    393.6799    216.7151  
   393.780    1761.472    393.7099    220.1840  
   393.810    1756.888    393.7399    219.6110  
   393.840    1761.311    393.7699    220.1639  
   393.870    1778.578    393.7999    222.3223  
   393.900    1784.961    393.8299    223.1201  
   393.930    1851.799    393.8599    231.4748  
   393.960    1839.033    393.8899    229.8791  
   393.990    1827.220    393.9199    228.4026  
   394.020    1777.037    393.9499    222.1297  
   394.050    1793.036    393.9799    224.1295  
   394.080    1817.737    394.0099    227.2171  
   394.110    1742.489    394.0399    217.8111  
   394.140    1783.340    394.0699    222.9175  
   394.170    1748.641    394.0999    218.5801  
   394.200    1712.089    394.1299    214.0112  
   394.230    1750.381    394.1599    218.7977  
   394.260    1704.040    394.1899    213.0050  
   394.290    1754.824    394.2199    219.3531  
   394.320    1716.308    394.2499    214.5385  
   394.350    1674.871    394.2799    209.3589  
   394.380    1643.903    394.3099    205.4879  
   394.410    1702.129    394.3399    212.7661  
   394.440    1721.144    394.3699    215.1431  
   394.470    1715.719    394.3999    214.4649  
   394.500    1733.789    394.4299    216.7236  
   394.530    1770.371    394.4599    221.2964  
   394.560    1752.760    394.4899    219.0950  
   394.590    1724.514    394.5199    215.5642  
   394.620    1710.126    394.5499    213.7657  
   394.650    1664.130    394.5799    208.0163  
   394.680    1633.647    394.6099    204.2059  
   394.710    1650.363    394.6399    206.2954  
   394.740    1661.369    394.6699    207.6712  
   394.770    1646.123    394.6999    205.7654  
   394.800    1596.553    394.7299    199.5692  
   394.830    1558.040    394.7599    194.7550  
   394.860    1576.297    394.7899    197.0371  
   394.890    1583.311    394.8199    197.9139  
   394.920    1549.049    394.8499    193.6311  
   394.950    1527.353    394.8799    190.9191  
   394.980    1497.321    394.9099    187.1651  
   395.010    1520.428    394.9399    190.0535  
   395.040    1536.009    394.9699    192.0012  
   395.070    1512.677    394.9999    189.0847  
   395.100    1497.921    395.0299    187.2401  
   395.130    1478.664    395.0599    184.8331  
   395.160    1488.401    395.0899    186.0502  
   395.190    1498.003    395.1199    187.2504  
   395.220    1514.260    395.1499    189.2825  
   395.250    1504.456    395.1799    188.0571  
   395.280    1505.294    395.2099    188.1618  
   395.310    1506.397    395.2399    188.2997  
   395.340    1510.196    395.2699    188.7745  
   395.370    1520.256    395.2999    190.0320  
   395.400    1552.813    395.3299    194.1017  
   395.430    1587.860    395.3599    198.4825  
   395.460    1621.884    395.3899    202.7355  
   395.490    1692.340    395.4199    211.5425  
   395.520    1775.767    395.4499    221.9708  
   395.550    1861.097    395.4799    232.6371  
   395.580    1920.569    395.5099    240.0712  
   395.610    1922.789    395.5399    240.3487  
   395.640    1972.856    395.5699    246.6070  
   395.670    2012.562    395.5999    251.5703  
   395.700    2006.832    395.6299    250.8540  
   395.730    2067.078    395.6599    258.3847  
   395.760    2067.347    395.6899    258.4184  
   395.790    2051.646    395.7199    256.4557  
   395.820    1923.591    395.7499    240.4488  
   395.850    1836.381    395.7799    229.5476  
   395.880    1806.831    395.8099    225.8538  
   395.910    1708.264    395.8399    213.5330  
   395.940    1668.285    395.8699    208.5357  
   395.970    1619.288    395.8999    202.4110  
   396.000    1593.619    395.9299    199.2024  
   396.030    1533.916    395.9599    191.7395  
   396.060    1502.972    395.9899    187.8715  
   396.090    1461.089    396.0199    182.6361  
   396.120    1439.595    396.0499    179.9493  
   396.150    1427.735    396.0799    178.4669  
   396.180    1417.479    396.1099    177.1849  
   396.210    1439.753    396.1399    179.9692  
   396.240    1486.794    396.1699    185.8492  
   396.270    1521.146    396.1999    190.1433  
   396.300    1518.066    396.2299    189.7582  
   396.330    1440.816    396.2599    180.1020  
   396.360    1337.874    396.2899    167.2342  
   396.390    1355.230    396.3199    169.4037  
   396.420    1332.451    396.3499    166.5564  
   396.450    1315.093    396.3799    164.3867  
   396.480    1329.116    396.4099    166.1395  
   396.510    1286.153    396.4399    160.7691  
   396.540    1288.988    396.4699    161.1235  
   396.570    1218.450    396.4999    152.3063  
   396.600    1229.085    396.5299    153.6356  
   396.630    1246.415    396.5599    155.8019  
   396.660    1283.319    396.5899    160.4149  
   396.690    1263.646    396.6199    157.9558  
   396.720    1245.560    396.6499    155.6949  
   396.750    1281.576    396.6799    160.1970  
   396.780    1327.649    396.7099    165.9561  
   396.810    1328.284    396.7399    166.0355  
   396.840    1306.517    396.7699    163.3146  
   396.870    1321.264    396.7999    165.1580  
   396.900    1599.241    396.8299    199.9051  
   396.930    2913.751    396.8599    364.2189  
   396.960    4194.047    396.8899    524.2559  
   396.990    4996.433    396.9199    624.5541  
   397.020    4320.958    396.9499    540.1197  
   397.050    2466.724    396.9799    308.3405  
   397.080    1489.437    397.0099    186.1796  
   397.110    1390.689    397.0399    173.8361  
   397.140    1351.751    397.0699    168.9688  
   397.170    1375.547    397.0999    171.9434  
   397.200    1385.555    397.1299    173.1944  
   397.230    1398.503    397.1599    174.8129  
   397.260    1397.778    397.1899    174.7223  
   397.290    1450.875    397.2199    181.3594  
   397.320    1449.160    397.2499    181.1449  
   397.350    1518.733    397.2799    189.8416  
   397.380    1589.887    397.3099    198.7359  
   397.410    1654.150    397.3399    206.7687  
   397.440    1505.730    397.3699    188.2162  
   397.470    1997.779    397.3999    249.7223  
   397.500    1854.957    397.4299    231.8696  
   397.530    1788.207    397.4599    223.5258  
   397.560    1743.320    397.4899    217.9150  
   397.590    1674.315    397.5199    209.2894  
   397.620    1642.938    397.5499    205.3672  
   397.650    1563.680    397.5799    195.4600  
   397.680    1542.924    397.6099    192.8655  
   397.710    1476.447    397.6399    184.5559  
   397.740    1433.801    397.6699    179.2251  
   397.770    1437.004    397.6999    179.6255  
   397.800    1421.744    397.7299    177.7180  
   397.830    1388.113    397.7599    173.5142  
   397.860    1379.139    397.7899    172.3924  
   397.890    1377.326    397.8199    172.1658  
   397.920    1365.000    397.8499    170.6250  
   397.950    1337.823    397.8799    167.2279  
   397.980    1315.188    397.9099    164.3985  
   398.010    1337.085    397.9399    167.1357  
   398.040    1292.724    397.9699    161.5905  
   398.070    1338.271    397.9999    167.2839  
   398.100    1312.470    398.0299    164.0588  
   398.130    1359.116    398.0599    169.8895  
   398.160    1343.925    398.0899    167.9907  
   398.190    1352.044    398.1199    169.0055  
   398.220    1365.587    398.1499    170.6983  
   398.250    1400.220    398.1799    175.0275  
   398.280    1427.232    398.2099    178.4040  
   398.310    1423.318    398.2399    177.9148  
   398.340    1432.911    398.2699    179.1139  
   398.370    1403.730    398.2999    175.4662  
   398.400    1419.736    398.3299    177.4670  
   398.430    1467.635    398.3599    183.4544  
   398.460    1490.368    398.3899    186.2960  
   398.490    1525.763    398.4199    190.7204  
   398.520    1483.094    398.4499    185.3868  
   398.550    1507.478    398.4799    188.4348  
   398.580    1543.842    398.5099    192.9803  
   398.610    1536.093    398.5399    192.0116  
   398.640    1519.470    398.5699    189.9337  
   398.670    1528.235    398.5999    191.0294  
   398.700    1512.225    398.6299    189.0281  
   398.730    1524.920    398.6599    190.6150  
   398.760    1575.164    398.6899    196.8955  
   398.790    1559.074    398.7199    194.8842  
   398.820    1582.421    398.7499    197.8027  
   398.850    1635.867    398.7799    204.4834  
   398.880    1641.074    398.8099    205.1343  
   398.910    1683.327    398.8399    210.4158  
   398.940    1682.507    398.8699    210.3133  
   398.970    1697.571    398.8999    212.1964  
   399.000    1751.241    398.9299    218.9052  
   399.030    1808.969    398.9599    226.1211  
   399.060    1932.368    398.9899    241.5460  
   399.090    1960.773    399.0199    245.0966  
   399.120    2023.479    399.0499    252.9349  
   399.150    2040.061    399.0799    255.0076  
   399.180    2115.294    399.1099    264.4118  
   399.210    2228.359    399.1399    278.5449  
   399.240    2275.747    399.1699    284.4684  
   399.270    2409.225    399.1999    301.1531  
   399.300    2526.665    399.2299    315.8332  
   399.330    2674.110    399.2599    334.2637  
   399.360    2801.620    399.2899    350.2025  
   399.390    3021.202    399.3199    377.6502  
   399.420    3207.685    399.3499    400.9607  
   399.450    3435.996    399.3799    429.4995  
   399.480    3798.165    399.4099    474.7706  
   399.510    4201.376    399.4399    525.1721  
   399.540    4754.265    399.4699    594.2831  
   399.570    5434.737    399.4999    679.3422  
   399.600    6013.084    399.5299    751.6355  
   399.630    6565.503    399.5599    820.6879  
   399.660    7071.110    399.5899    883.8887  
   399.690    7249.919    399.6199    906.2399  
   399.720    7152.438    399.6499    894.0547  
   399.750    6796.418    399.6799    849.5523  
   399.780    6332.693    399.7099    791.5866  
   399.810    5866.690    399.7399    733.3362  
   399.840    5363.298    399.7699    670.4123  
   399.870    4885.247    399.7999    610.6559  
   399.900    4421.162    399.8299    552.6452  
   399.930    4163.855    399.8599    520.4819  
   399.960    3923.642    399.8899    490.4553  
   399.990    3687.990    399.9199    460.9987  
   400.020    3388.848    399.9499    423.6060  
   400.050    3214.693    399.9799    401.8366  
   400.080    3000.386    400.0099    375.0482  
   400.110    2889.946    400.0399    361.2432  
   400.140    2779.631    400.0699    347.4539  
   400.170    2692.495    400.0999    336.5619  
   400.200    2613.369    400.1299    326.6711  
   400.230    2463.447    400.1599    307.9309  
   400.260    2442.763    400.1899    305.3454  
   400.290    2317.334    400.2199    289.6667  
   400.320    2236.680    400.2499    279.5851  
   400.350    2196.674    400.2799    274.5843  
   400.380    2128.118    400.3099    266.0148  
   400.410    2089.246    400.3399    261.1557  
   400.440    2046.966    400.3699    255.8707  
   400.470    2013.422    400.3999    251.6778  
   400.500    1983.053    400.4299    247.8816  
   400.530    1933.017    400.4599    241.6271  
   400.560    1933.117    400.4899    241.6396  
   400.590    1878.222    400.5199    234.7777  
   400.620    1843.091    400.5499    230.3864  
   400.650    1864.631    400.5799    233.0789  
   400.680    1754.676    400.6099    219.3345  
   400.710    1728.096    400.6399    216.0120  
   400.740    1767.869    400.6699    220.9836  
   400.770    1746.942    400.6999    218.3677  
   400.800    1747.630    400.7299    218.4537  
   400.830    1813.295    400.7599    226.6618  
   400.860    1691.724    400.7899    211.4654  
   400.890    1676.791    400.8199    209.5988  
   400.920    1704.371    400.8499    213.0464  
   400.950    1623.626    400.8799    202.9533  
   400.980    1656.439    400.9098    207.0549  
   401.010    1667.000    400.9398    208.3750  
   401.040    1633.990    400.9698    204.2488  
   401.070    2147.020    400.9998    268.3775  
   401.100    1847.940    401.0298    230.9925  
   401.130    1583.171    401.0599    197.8963  
   401.160    1602.932    401.0899    200.3665  
   401.190    1642.355    401.1199    205.2944  
   401.220    1641.927    401.1499    205.2409  
   401.250    1617.719    401.1799    202.2149  
   401.280    1603.094    401.2099    200.3868  
   401.310    1604.537    401.2399    200.5671  
   401.340    1618.388    401.2699    202.2985  
   401.370    1627.507    401.2999    203.4384  
   401.400    1615.919    401.3299    201.9899  
   401.430    1612.285    401.3599    201.5356  
   401.460    1632.078    401.3899    204.0098  
   401.490    1655.188    401.4199    206.8985  
   401.520    1649.959    401.4499    206.2449  
   401.550    1670.527    401.4799    208.8159  
   401.580    1643.356    401.5098    205.4195  
   401.610    1672.642    401.5398    209.0803  
   401.640    1685.496    401.5698    210.6870  
   401.670    1667.445    401.5998    208.4306  
   401.700    1734.981    401.6298    216.8726  
   401.730    1703.083    401.6598    212.8853  
   401.760    1669.349    401.6898    208.6686  
   401.790    1691.285    401.7198    211.4106  
   401.820    1705.259    401.7498    213.1573  
   401.850    1715.318    401.7798    214.4148  
   401.880    1798.423    401.8099    224.8029  
   401.910    1765.511    401.8399    220.6889  
   401.940    1708.092    401.8699    213.5115  
   401.970    1729.947    401.8999    216.2433  
   402.000    1757.935    401.9299    219.7419  
   402.030    1748.896    401.9599    218.6120  
   402.060    1784.696    401.9899    223.0870  
   402.090    1812.187    402.0199    226.5234  
   402.120    1804.714    402.0499    225.5892  
   402.150    1805.443    402.0799    225.6803  
   402.180    1805.925    402.1098    225.7406  
   402.210    1859.065    402.1398    232.3831  
   402.240    1877.230    402.1698    234.6537  
   402.270    1827.346    402.1998    228.4183  
   402.300    1893.837    402.2298    236.7297  
   402.330    1891.531    402.2598    236.4414  
   402.360    1946.922    402.2898    243.3653  
   402.390    1967.573    402.3198    245.9467  
   402.420    1939.731    402.3498    242.4664  
   402.450    1976.317    402.3798    247.0396  
   402.480    1999.380    402.4098    249.9224  
   402.510    2000.697    402.4398    250.0871  
   402.540    1990.627    402.4698    248.8284  
   402.570    2033.684    402.4998    254.2105  
   402.600    2095.547    402.5298    261.9434  
   402.630    2096.960    402.5599    262.1201  
   402.660    2077.531    402.5899    259.6913  
   402.690    2134.092    402.6199    266.7615  
   402.720    2123.793    402.6499    265.4742  
   402.750    2220.233    402.6799    277.5291  
   402.780    2207.671    402.7098    275.9589  
   402.810    2218.764    402.7398    277.3455  
   402.840    2264.284    402.7698    283.0355  
   402.870    2196.372    402.7998    274.5464  
   402.900    2235.350    402.8298    279.4187  
   402.930    2313.537    402.8598    289.1921  
   402.960    2271.576    402.8898    283.9470  
   402.990    2292.165    402.9198    286.5207  
   403.020    2363.607    402.9498    295.4508  
   403.050    2396.369    402.9798    299.5461  
   403.080    2425.340    403.0098    303.1675  
   403.110    2440.281    403.0398    305.0352  
   403.140    2430.858    403.0698    303.8573  
   403.170    2478.505    403.0998    309.8131  
   403.200    2583.973    403.1298    322.9966  
   403.230    2588.215    403.1598    323.5268  
   403.260    2587.702    403.1898    323.4628  
   403.290    2588.729    403.2198    323.5911  
   403.320    2578.851    403.2498    322.3564  
   403.350    2653.373    403.2798    331.6717  
   403.380    2605.796    403.3098    325.7245  
   403.410    2619.624    403.3398    327.4530  
   403.440    2692.731    403.3698    336.5913  
   403.470    2639.265    403.3998    329.9081  
   403.500    2787.002    403.4298    348.3752  
   403.530    2787.969    403.4598    348.4961  
   403.560    2802.978    403.4898    350.3722  
   403.590    2807.615    403.5198    350.9518  
   403.620    2856.740    403.5498    357.0926  
   403.650    2941.077    403.5798    367.6346  
   403.680    3030.898    403.6098    378.8622  
   403.710    2990.259    403.6398    373.7823  
   403.740    2987.810    403.6698    373.4762  
   403.770    2957.633    403.6998    369.7042  
   403.800    2996.969    403.7298    374.6211  
   403.830    3024.927    403.7598    378.1158  
   403.860    2983.319    403.7898    372.9149  
   403.890    3007.378    403.8198    375.9223  
   403.920    3073.332    403.8498    384.1665  
   403.950    3149.265    403.8798    393.6581  
   403.980    3181.241    403.9098    397.6552  
   404.010    3115.504    403.9398    389.4380  
   404.040    3083.260    403.9698    385.4075  
   404.070    3154.112    403.9998    394.2640  
   404.100    3202.968    404.0298    400.3710  
   404.130    3186.097    404.0598    398.2622  
   404.160    3186.280    404.0898    398.2850  
   404.190    3181.322    404.1198    397.6652  
   404.220    3157.484    404.1498    394.6855  
   404.250    3240.572    404.1798    405.0715  
   404.280    3261.600    404.2098    407.7000  
   404.310    3281.043    404.2398    410.1304  
   404.340    3204.269    404.2698    400.5337  
   404.370    3216.010    404.2998    402.0013  
   404.400    3198.787    404.3298    399.8484  
   404.430    3153.267    404.3598    394.1583  
   404.460    3143.381    404.3898    392.9226  
   404.490    3140.212    404.4198    392.5265  
   404.520    3074.518    404.4498    384.3148  
   404.550    3014.209    404.4798    376.7762  
   404.580    3010.166    404.5098    376.2707  
   404.610    2976.571    404.5398    372.0714  
   404.640    2949.544    404.5698    368.6931  
   404.670    2942.526    404.5998    367.8158  
   404.700    2898.289    404.6298    362.2861  
   404.730    2932.484    404.6598    366.5605  
   404.760    3029.088    404.6898    378.6360  
   404.790    3047.699    404.7198    380.9624  
   404.820    2979.806    404.7498    372.4757  
   404.850    2929.107    404.7798    366.1384  
   404.880    2795.942    404.8098    349.4927  
   404.910    2610.226    404.8398    326.2782  
   404.940    2525.333    404.8698    315.6666  
   404.970    2485.998    404.8998    310.7497  
   405.000    2436.747    404.9298    304.5934  
   405.030    2426.368    404.9598    303.2961  
   405.060    2434.865    404.9898    304.3581  
   405.090    2391.684    405.0198    298.9604  
   405.120    2373.923    405.0498    296.7404  
   405.150    2389.451    405.0798    298.6814  
   405.180    2301.212    405.1098    287.6516  
   405.210    2323.601    405.1398    290.4501  
   405.240    2299.482    405.1698    287.4352  
   405.270    2255.604    405.1998    281.9506  
   405.300    2246.681    405.2298    280.8352  
   405.330    2174.432    405.2598    271.8040  
   405.360    2214.031    405.2898    276.7538  
   405.390    2222.748    405.3198    277.8434  
   405.420    2206.072    405.3498    275.7590  
   405.450    2170.459    405.3798    271.3074  
   405.480    2205.609    405.4098    275.7011  
   405.510    2144.167    405.4398    268.0208  
   405.540    2097.011    405.4698    262.1264  
   405.570    2105.423    405.4998    263.1778  
   405.600    2046.954    405.5298    255.8693  
   405.630    2041.819    405.5598    255.2274  
   405.660    2093.379    405.5898    261.6724  
   405.690    2082.508    405.6198    260.3135  
   405.720    2105.349    405.6498    263.1686  
   405.750    2126.034    405.6798    265.7543  
   405.780    2068.907    405.7098    258.6134  
   405.810    2072.738    405.7398    259.0923  
   405.840    2097.512    405.7698    262.1891  
   405.870    2088.022    405.7998    261.0027  
   405.900    2069.801    405.8298    258.7251  
   405.930    2097.179    405.8598    262.1474  
   405.960    2149.259    405.8898    268.6573  
   405.990    2070.244    405.9198    258.7805  
   406.020    2040.312    405.9498    255.0390  
   406.050    2014.381    405.9798    251.7977  
   406.080    1955.202    406.0098    244.4003  
   406.110    1979.304    406.0398    247.4129  
   406.140    1979.817    406.0698    247.4772  
   406.170    2033.946    406.0998    254.2432  
   406.200    1992.206    406.1298    249.0257  
   406.230    1935.874    406.1598    241.9843  
   406.260    1991.022    406.1898    248.8777  
   406.290    1962.250    406.2198    245.2813  
   406.320    2000.991    406.2498    250.1238  
   406.350    1960.332    406.2798    245.0415  
   406.380    1959.000    406.3098    244.8750  
   406.410    2009.752    406.3398    251.2190  
   406.440    2024.632    406.3698    253.0790  
   406.470    2050.485    406.3998    256.3106  
   406.500    2117.648    406.4298    264.7060  
   406.530    2057.681    406.4598    257.2101  
   406.560    2051.280    406.4898    256.4099  
   406.590    2057.442    406.5198    257.1803  
   406.620    2061.449    406.5498    257.6811  
   406.650    2032.687    406.5798    254.0859  
   406.680    2040.857    406.6098    255.1072  
   406.710    2073.505    406.6398    259.1881  
   406.740    2071.274    406.6698    258.9092  
   406.770    2076.076    406.6998    259.5095  
   406.800    2100.096    406.7298    262.5121  
   406.830    2144.114    406.7598    268.0143  
   406.860    2213.029    406.7898    276.6287  
   406.890    2249.523    406.8198    281.1904  
   406.920    2253.255    406.8498    281.6569  
   406.950    2302.875    406.8798    287.8593  
   406.980    2397.012    406.9098    299.6265  
   407.010    2462.481    406.9398    307.8102  
   407.040    2550.337    406.9698    318.7921  
   407.070    2712.799    406.9998    339.0999  
   407.100    2781.348    407.0298    347.6685  
   407.130    2913.144    407.0598    364.1430  
   407.160    3074.573    407.0898    384.3216  
   407.190    3175.807    407.1198    396.9759  
   407.220    3151.505    407.1498    393.9381  
   407.250    3172.020    407.1798    396.5025  
   407.280    2964.907    407.2098    370.6134  
   407.310    3154.923    407.2398    394.3654  
   407.340    3354.476    407.2698    419.3095  
   407.370    3428.626    407.2998    428.5783  
   407.400    3409.897    407.3298    426.2371  
   407.430    3369.927    407.3598    421.2408  
   407.460    3418.888    407.3898    427.3610  
   407.490    3306.508    407.4198    413.3135  
   407.520    3238.965    407.4498    404.8706  
   407.550    3223.554    407.4798    402.9442  
   407.580    3237.631    407.5098    404.7039  
   407.610    3242.640    407.5398    405.3300  
   407.640    3258.252    407.5698    407.2815  
   407.670    3262.041    407.5998    407.7551  
   407.700    3246.624    407.6298    405.8280  
   407.730    3232.966    407.6598    404.1207  
   407.760    3292.512    407.6898    411.5641  
   407.790    3385.906    407.7198    423.2383  
   407.820    3364.417    407.7498    420.5521  
   407.850    3287.472    407.7798    410.9340  
   407.880    3225.385    407.8098    403.1731  
